44.1503306928499,42.9903876861412,43.2803734378184,42.192926869029,42.1204304311097,40.5255087968852,42.1204304311097,52.4874210535687,41.7579482415132,41.9754375552711,41.7579482415132,40.235523045208,42.9178912482219,42.9903876861412,41.0329838623203,46.0352380787515,37.6981477180328,42.4829126207062,50.4575207918285,39.9455372935309,42.1204304311097,42.5554090586254,39.6555515418537,39.6555515418537,49.2250813472005,33.1308721291172,41.1054803002396,45.5277630133165,46.4702167062673,42.192926869029,37.0456797767591,28.636092978121,59.229589780063,43.5703591894955,48.5726134059268,31.0284754294577,27.5486464093316,56.1122429495334,42.3379197448676,36.6831975871626,19.5740382382093,58.2146396491929,42.1204304311097,42.7728983723833,52.4874210535687,43.425366313657,41.467962489836,42.2654233069483,42.2654233069483,41.3954660519167,42.8453948103026,43.2078769998991,43.2078769998991,42.700401934464,41.8304446794325,41.5404589277553,43.5703591894955,40.5980052348045,44.2953235686885,43.7878485032534,41.3954660519167,38.4231120972257,43.2078769998991,42.700401934464
218.916848876474,212.542988516103,214.208950044115,208.469069379505,209.28501844213,201.209676606854,208.632550500857,257.823684504824,206.985077218358,209.032009181479,207.130070094196,199.471218640923,212.198994572019,213.195456457377,204.125109280875,227.208223481376,188.373884290945,212.237427607177,250.004265018463,200.052646688409,211.459911579709,210.914003479117,198.531678036236,202.591478559716,242.416453458977,170.979555650911,211.066279075615,223.712819304001,224.632415119043,205.786701176492,179.695713074406,160.381403929778,290.757574997558,214.859961441257,232.650835673649,160.641249082887,155.293991206442,270.383609682174,207.41714275761,172.61100694796,116.874685853882,286.666624159579,209.719997069646,215.208325017736,259.201116825291,215.18692368396,206.551555134974,209.393034826943,210.335488519894,205.917575439213,212.144986379613,214.372431165466,214.589920479224,211.239509177688,207.619056914118,206.170584699864,215.004954317095,201.771159864696,218.517390195852,217.051886280217,205.19261106002,192.176305921378,213.357481034596,211.384502053526
448.367531984551,434.481704898136,437.771556438909,425.196450785543,430.040643854975,413.409051208097,426.654712606545,522.008197872211,423.990142122768,431.147669637258,424.823122886773,409.557716409483,432.444562541762,437.577650394889,421.667418512664,462.496543859316,389.489857667417,440.999502031919,512.571144096405,417.729137952418,443.477809008015,429.470061516662,415.127274299813,436.058353240643,490.707836376629,372.283568629652,453.630577460188,452.646168008788,441.031859071199,412.468674854448,356.48496214645,387.222407906274,585.440770033376,434.795564004124,450.658124308505,350.417057737042,378.03323350134,532.97808724624,417.100073192641,321.351173567821,301.190752802521,580.22474047486,432.684579022832,449.031315807811,527.094154051415,440.031973659543,425.170755310951,427.955644432847,432.500062143854,423.06257306079,433.450814033866,438.722343194474,440.551785843837,431.389397881477,425.95333149709,422.680511657698,437.150969964435,414.593268010821,443.729582077998,444.163504603087,420.565087312903,398.02441706067,433.688938663544,432.004889331725
497.561431682572,483.123355495773,486.203564366323,470.321670180552,480.287310012216,462.331544684166,472.538965285195,571.834448040357,471.626047383128,483.843644769401,473.053483839757,458.429601200488,475.490274749889,488.553270753505,477.21544293665,510.853100075948,436.658365706584,504.13827950784,571.704088664834,482.919172972287,515.667811502151,463.604304566175,482.680809369861,525.724021146629,530.361698058232,453.27022918043,534.938919430339,496.702899706975,454.189855915115,449.537220747938,379.613665651248,533.966401863197,629.847615347962,468.673174701495,457.957333938232,427.763876489045,526.7753060974,564.24628997765,451.034124954184,298.08252726584,438.819991333322,628.620690846222,487.649989721603,505.616214292394,577.199074089253,487.160421514062,472.790045557903,472.51315421057,481.288385745613,469.362483603166,479.205355678669,484.63546954191,491.051000975827,477.13277410988,472.843196253391,469.246088286811,479.789362873137,461.984962860725,486.003742937711,491.898943874598,467.527290268853,447.466076650351,474.36754720695,478.25319311345
355.580751378457,348.598725510319,353.122282661026,336.927968739932,346.939603000027,336.094472315266,336.929312506135,403.939745377125,339.486059806014,348.934335915906,339.160473372968,332.767509453367,332.564961521636,351.208268835804,351.825697674644,367.599289592786,313.543502179944,379.216832836328,412.430359541493,373.883116991461,397.870136783619,296.640365416096,377.762874152246,420.333071930977,351.975939180338,360.501076841236,397.824097426046,361.201063042393,291.724085292648,333.250452151187,271.567344008623,483.067037806488,426.8850995041,314.432945532811,301.383175503537,348.930748804603,481.644921404065,393.207026768631,319.327329878547,167.187387185841,404.08743431272,423.010709116813,363.273835954279,349.567727977104,403.039141886292,348.689163983192,333.724137081501,334.192701380699,341.468310996045,330.519705578215,341.907145238675,342.114764114104,353.946696482757,340.74064117798,333.929709097965,333.962130014684,338.859603135559,330.406597185443,343.59530718217,350.682864419256,334.357215078962,321.551864597006,331.009586351274,341.368389012608
232.077045285425,227.516207341953,239.12381708029,220.805738867631,225.85789131919,223.36236277075,217.766011460655,260.171334745214,219.887201872586,219.530270268117,216.322664640146,213.713393495899,203.769674432292,221.267097724168,223.616665001793,241.199334503518,200.390546025984,247.560045851228,264.003971464795,260.804888041201,265.923569828097,141.979701739112,264.073877445942,282.279791733602,192.706705683195,236.796713477192,235.546995095309,258.967547531564,200.631681370325,258.482486350233,220.520847864396,338.652619650575,267.948515521901,199.106701532157,229.905404179457,252.196198440516,338.668613291322,280.581526805127,232.735838002604,140.422440599786,266.367351328384,244.509170554586,262.594643603083,194.515379248183,258.159855236826,232.254297997563,210.891041812311,216.326006032075,214.869089353522,207.903221181786,227.154820866623,220.25453455497,233.779363549776,225.271546523384,208.549602941128,214.18916792859,223.165175153549,211.993114280357,229.579169328876,231.160914309916,217.282750735511,204.356381791723,214.52076650417,222.677061054446
177.098147332961,166.441511501661,181.80456567558,163.735483553677,165.028261827193,168.931835187967,158.573986364424,192.099299109303,152.694314234548,148.503770618423,150.528239633412,142.513036690287,131.727946079549,150.188405572157,134.962603271002,165.459497695573,142.457433202696,150.675921183106,177.253936603086,178.292991535627,171.798374605772,69.7924209328515,182.178077924091,188.8487920997,117.359515104031,173.487398999016,150.594187294207,214.172364038054,209.553273942504,235.297137438897,232.24805558262,226.747567279342,212.844505914458,181.799695897793,238.331972226616,199.702225857318,228.481364269712,249.579283113222,217.674404090403,189.272856180927,164.78587839526,173.177926406483,237.135540723265,139.847164093719,202.167568665607,184.499830379422,160.840142511904,167.610344303963,158.591823505274,157.136772453916,181.114999705551,168.578641434966,183.157919596757,177.193516824599,152.529924560083,161.153127152229,177.138313314524,158.461217543148,185.642762360509,183.824613697068,165.92098332388,151.592923039922,171.922159687526,169.052710942226
93.5229240676514,81.0200859880268,87.8286459733417,78.625519901534,77.3755209987267,86.0798944524978,68.1712577196178,96.6101993657562,50.3290012105604,54.0118213177728,57.7483052899711,35.9251951786462,25.8081437703131,56.3076342087003,11.6042505824387,46.9245607529307,54.1292563161817,16.3469980202436,51.5039259181471,44.6068529233001,49.7332180291209,-7.79495837195691,64.3693551910584,88.4349829094212,33.3285811478741,125.379836802886,81.8940926724113,118.088618473896,165.030256538124,160.141332957535,173.302955327519,130.308984816684,123.503000970829,146.679147366274,169.287344517177,128.209473784055,146.604840675619,171.03452131288,154.343803014617,157.994104880678,112.526179452584,94.7915725180983,186.459051227001,104.204629417155,123.467381260577,109.520929023449,89.3088838121052,94.8006640820462,86.3669134038873,86.5242714580651,107.231643797161,90.9671904051698,112.383646365573,102.290991207092,80.1342457220252,87.7220727833019,103.022494083107,85.0363559812139,111.379246723951,109.276764932885,89.9801421012465,82.6643398536597,102.703211131965,91.0419689029261
-27.2960879047872,-34.0369542408534,-37.8002827368752,-36.3851069355019,-42.7029559730807,-30.8087400004287,-55.0629789407044,-30.5519228593511,-81.3860390404755,-70.7032167494386,-61.4933564516537,-106.222164045845,-112.57721257424,-67.4899176132728,-139.174372406398,-99.3092662828844,-68.6443496073792,-139.321561122932,-107.314092496126,-127.311197060969,-97.3594829162259,-117.83170158419,-86.0959376261435,-42.5875223720604,-72.4392362089081,28.5923453731039,-5.59683605307835,-20.2239010801804,25.8291927663462,44.5989333685235,26.1667131969458,-3.63762964140061,-20.611044431568,53.6644731750151,25.1607462171224,8.46950534757849,36.4500651582495,39.1275007172263,35.7662694473048,46.6327674831307,42.3001909052844,-24.8407482269109,82.1012907756189,23.887549009125,9.28160061946071,-0.279292069932536,-18.7141404470656,-12.0641410954039,-17.2931292907852,-20.305451873471,-1.43833511108739,-20.1599730715757,9.72703971171472,-8.22556209819085,-21.1467631548528,-18.5843717421047,-7.48530643768743,-21.0909257464142,1.60771125424857,-3.52485125061231,-20.0234878003598,-17.7517914072174,-4.43839604773179,-17.3886087776537
-121.598315517629,-126.107098988793,-129.762809153429,-126.984018537458,-136.557151591217,-122.940232273411,-148.597957848086,-131.671315497598,-176.760061255017,-170.757145233434,-151.90531936463,-216.17130600438,-216.274933216251,-168.47288867364,-256.645651081869,-203.783454962587,-163.476375873138,-259.919240502185,-230.728645084646,-257.623644772283,-225.006668779617,-217.74240606223,-216.925426519264,-181.748902780463,-161.950643967768,-110.95323273545,-90.1737144206301,-132.298741041767,-127.518972239139,-50.6615575909989,-116.333950114404,-149.973316567994,-147.791868133423,-44.6538625102103,-98.2757729266191,-116.660384214294,-91.8342259353254,-84.1005934102049,-64.1486049766701,-57.0726083761826,-60.4994504257684,-135.058366698269,-26.9209513531988,-78.3310137949836,-83.6630923777162,-86.6089192006017,-105.147871387782,-97.4942493889465,-103.82949097908,-109.115527150163,-85.1519246211534,-107.677079798558,-75.3097134193219,-96.7829718715768,-102.291565507688,-107.680423873039,-94.8401106392607,-107.426317308921,-84.1613703707912,-91.106796828589,-106.541183404844,-100.482491823164,-88.2249554665651,-102.934601562965
-165.022904202515,-174.884877323603,-172.133882184823,-176.047169893934,-182.796550532096,-168.556315535649,-192.823263829101,-190.310191533111,-218.865184775107,-222.467595799232,-200.955541689371,-263.128337994421,-260.762540716767,-222.884737765746,-315.075563202064,-257.233293327829,-209.427230468616,-336.613948801675,-311.850311676368,-316.95884140381,-323.547033489399,-278.125256906342,-304.929452981823,-311.203022477022,-230.014611105806,-231.784170707802,-159.672004413158,-205.916589158547,-232.538802075584,-123.747111688467,-199.553402104764,-251.58942943159,-229.794506540627,-113.618046617348,-172.372665506046,-202.911373762196,-184.657048936955,-172.986804634525,-126.319498950334,-124.263750874385,-147.357264286847,-199.429240027621,-104.668765215534,-149.724939027167,-140.42701933417,-130.984755131017,-148.472972337713,-141.626400567776,-150.234228799848,-155.472290280691,-129.885548747997,-154.59972921491,-125.431896100562,-142.508796471226,-144.943594240568,-156.870719951638,-138.042222600341,-149.734877284939,-130.389572198137,-133.413947868667,-150.851012569424,-144.34157213757,-129.012195024803,-149.342174073933
-182.208581176283,-196.709595464098,-190.441495672743,-200.600651150096,-203.158292547486,-189.400291123281,-211.297867806316,-219.930809435414,-233.294480928301,-241.782824679863,-226.402653703633,-271.617752246991,-269.648604160292,-246.244947774855,-329.929148614757,-295.557606057358,-233.169504642416,-384.206752771913,-376.774122111968,-336.811613265172,-403.683316789044,-302.915637163779,-363.03887334827,-428.361008141384,-282.430934022315,-303.295920534229,-215.786611546727,-260.231425651043,-291.643632445703,-196.734935937425,-246.678346240292,-310.434852270171,-294.085117129823,-164.544026296447,-225.782567407954,-252.858605627368,-241.14696389733,-237.620118423753,-178.901353530142,-174.975963441396,-198.29746149064,-233.399925418612,-154.682790002003,-182.234516299926,-182.529667761838,-156.770894391374,-169.489994531918,-162.742462853952,-170.855000078111,-176.930041683239,-161.209151279391,-179.672462373198,-154.965193596637,-163.92173489026,-165.221260330591,-177.860110134695,-160.429496668445,-167.203681346989,-160.646397929122,-158.658739288419,-173.432440166402,-168.481628287306,-153.695481654483,-173.315664589313
-206.062445619982,-216.170516174249,-212.44082798519,-223.768413091451,-224.034043984244,-213.039446883242,-231.212886107472,-239.263971271535,-247.162792110995,-255.780704949127,-246.160614113225,-279.843116110914,-275.679078978522,-267.285026157422,-338.460681791435,-357.675292356412,-262.768990197061,-424.477061324798,-435.146903283261,-357.039160223141,-472.911827112935,-315.160410979825,-410.601556287757,-534.781329232914,-319.575566944263,-353.279475106468,-258.081826770803,-309.062541301114,-329.08431271971,-272.909399543417,-292.07299793581,-368.530257764561,-378.500671464786,-217.079589936197,-284.304075685169,-297.579736471638,-308.849812058734,-310.483697557019,-237.109921652109,-226.496462265824,-248.653607062427,-282.261711338753,-202.0671761882,-217.575909019937,-235.792020669248,-189.017455806969,-192.449714102365,-186.555491096096,-192.985221719522,-200.529509748521,-195.504984466893,-205.528353382041,-183.363527752627,-186.148363900593,-187.444517055244,-195.329331555892,-188.879781646817,-189.26229947622,-195.289470192002,-189.831087269655,-195.812137657465,-195.577733612341,-186.033769605034,-195.834811069971
-244.030736208076,-243.985470779107,-246.536893294063,-253.947787251793,-253.919894669826,-246.096657914618,-260.392505525135,-263.982272997156,-269.365696375744,-276.799351315519,-272.366432171682,-298.636668294054,-294.346117349386,-299.422478328386,-362.883855115271,-457.108000430127,-294.943104561034,-479.318423573213,-495.733137411469,-384.980301078571,-530.157796846667,-327.224279216616,-442.320852974278,-618.966869002277,-343.721567342733,-399.49891979863,-284.059298084878,-347.349950644988,-357.390912379633,-338.927590493985,-334.080098224146,-427.729685154171,-483.776557973484,-268.311133246553,-348.774459226035,-346.304112426374,-393.28554986692,-406.690702174198,-291.541262443114,-278.563993073855,-311.802375094927,-356.883943636005,-258.15270703135,-273.969860165374,-303.840330670821,-230.109152278907,-225.33919008382,-223.489440003164,-228.197056174109,-234.918381771716,-231.055754600432,-239.549122106855,-218.863544239361,-220.841225934344,-220.830393895352,-225.156294956111,-225.618500589264,-223.382610643991,-233.092822744389,-225.506069371721,-226.853305214397,-228.936942277545,-224.80223846526,-228.255123272395
-281.819568862509,-279.129409004866,-283.457873328513,-284.527717080156,-288.629681190623,-278.477859837642,-292.496679444507,-299.792026323626,-293.83866251711,-301.939782091763,-307.559112271511,-316.422655869409,-322.190280433367,-337.300065640851,-388.992743251024,-550.522081339899,-309.143244526943,-528.797618627938,-567.678624990447,-406.267079661346,-564.655881662916,-334.848457758047,-448.578168743295,-659.124104101785,-358.649386466059,-426.987661386205,-300.375135721911,-360.256258035586,-386.159725605388,-383.575207624085,-364.132931707667,-461.580818042923,-577.98698584737,-309.147943483248,-403.645521080042,-385.508482095616,-457.376106544719,-495.751548984842,-333.35504453044,-324.038653410559,-361.56629336023,-423.659230057213,-312.485134419139,-328.686819075924,-367.15148871957,-269.443137670914,-264.670848528255,-264.195007325902,-267.061476147738,-270.916509791845,-266.462066355799,-273.848514357992,-256.747445088015,-263.680020953648,-258.263066309685,-264.566484484222,-260.596129574846,-259.679011923665,-264.753844518378,-261.245406976676,-263.625709072463,-264.676135759597,-261.788217712159,-268.41881508157
-307.332392940283,-310.00355849576,-309.259832718952,-305.697903404506,-315.591708017997,-299.742301775925,-316.524046343884,-334.429301135964,-309.245151943834,-321.802643103492,-336.212005810776,-321.29545069622,-338.675437591547,-363.849184958236,-390.50413134813,-559.681630964341,-304.327751222708,-509.045530787277,-612.01893094646,-410.044429022291,-554.246265671536,-335.036163031396,-438.761974129898,-639.474252367179,-361.380933593632,-428.822524850234,-318.776874132833,-354.670171405569,-410.272434099249,-412.922071918218,-385.457666645391,-469.834694774581,-633.687531670137,-338.839296378454,-431.735522136722,-409.14599777989,-484.290736920903,-540.984940568697,-360.332065107167,-350.341780361866,-386.856333269237,-457.946592934926,-347.851663097086,-363.981166399489,-414.643680636833,-298.107844279045,-300.333964560824,-292.716780420791,-296.357695285893,-296.014760455524,-298.475196275005,-299.194366896686,-287.596804122653,-298.780168672888,-288.937511983355,-297.202966127758,-287.542837010404,-287.657975088261,-286.127546452037,-293.686615539653,-293.206395230535,-295.122631751799,-290.835650957112,-302.227986731292
-316.519339863988,-317.197957350957,-312.660427209824,-307.639921781893,-318.554904659627,-303.233543518593,-318.243355581612,-342.433521361361,-303.034372535291,-321.310431033217,-335.989558761929,-305.134198641631,-318.702745484667,-357.290419124022,-362.846020161934,-468.239996655799,-298.703316142282,-400.242634535587,-557.132744851824,-391.685040228232,-485.546034301731,-325.544275492938,-414.932814116486,-559.997848993281,-341.204250164794,-410.206217781727,-335.963415175954,-347.697088652674,-412.500584608188,-435.026326493369,-388.152848914579,-469.236787641644,-638.445040968247,-347.902639865323,-420.940664622278,-422.349739947482,-477.937777668706,-554.376137735809,-364.115218105419,-338.9306587867,-394.015954298214,-471.094314089499,-351.187445196471,-377.953237805564,-460.956997427011,-309.015922868327,-314.552658695441,-300.616479748509,-307.865817902672,-302.441111869586,-312.504761292702,-310.552173365136,-303.157974274212,-309.693331013007,-301.370011945144,-305.833116554313,-298.559845716382,-298.564090257631,-295.357463717611,-309.756098050811,-302.326947580101,-304.018626493648,-301.990062451172,-312.218572286507
-300.48672304257,-293.16518890905,-288.177376472146,-281.031315126706,-290.127800432131,-279.649843259395,-285.837861359735,-309.937118651352,-265.151841742159,-284.342138794379,-298.466756029563,-258.530349976198,-255.078538497943,-305.770639586649,-310.398198363205,-332.820268081651,-298.639203814802,-253.306452906363,-391.287281518944,-340.258599609146,-374.428351285743,-283.985729172274,-361.123898630778,-435.344965607168,-284.713084956203,-363.060565403142,-321.747861185442,-321.559689380153,-394.769869666514,-427.42467881153,-348.17588481076,-448.644270955995,-587.119784082743,-314.585643912871,-359.607120862523,-413.398636859024,-427.447305444613,-570.83853002878,-330.505599338527,-276.168592104836,-363.946859792979,-480.895967380411,-315.516259753724,-360.846749839136,-519.226704160774,-294.075832073327,-294.752058863174,-285.590551853384,-293.028193933043,-286.343652869047,-294.841764146703,-300.166991730214,-295.668941579499,-291.223979726324,-286.237320678636,-285.243754173706,-284.553030762528,-284.094541170276,-287.501317769678,-295.360502225747,-285.741494190148,-281.73366284229,-286.62482265438,-290.063707496625
-244.983047018048,-239.983507915982,-233.22455676277,-221.482164808625,-228.47285792405,-219.283313669985,-215.932499035775,-243.376344552932,-192.547666061654,-204.141484132127,-223.950552343077,-170.906163820856,-155.779562235335,-212.851926932901,-210.480553936922,-188.60191697126,-286.371463941203,-103.523665294025,-185.728230375513,-239.861495909017,-242.320666483721,-182.268432487248,-273.177354154376,-289.12175868925,-186.778687910195,-281.562109015695,-243.695826180349,-241.855801703757,-358.36176863281,-358.177993371473,-256.729485629414,-372.503369678339,-480.864836709076,-231.579306645351,-242.75080328591,-352.115591792506,-323.000360560419,-569.449391336007,-253.065589480504,-165.241738884222,-270.476139380731,-476.419003426847,-241.562211294204,-298.834156349539,-562.762876143769,-248.371887344102,-243.01685900377,-242.373868303756,-245.925957954476,-241.093130362765,-245.074627292567,-254.889735690717,-255.992739780184,-245.444262163279,-241.668338512319,-238.345344893463,-242.541609709699,-236.979300587832,-252.72467753201,-247.168772395538,-241.027157913643,-230.892314249309,-242.569118181335,-239.015584163334
-167.523251282341,-169.938721843154,-161.74579642366,-147.327253770689,-149.446670553381,-140.255070293977,-130.197928192916,-168.115366158655,-103.617477567272,-105.874597188534,-131.997805367143,-56.5070255893697,-45.1382045897938,-108.483085282739,-46.0248700614714,-57.6148661579044,-234.664210989178,30.5610626229838,-41.2645724490268,-116.502997193087,-118.458917283587,-50.4235021462835,-184.540507848373,-164.017901790262,-84.0449664003547,-203.5692522149,-148.656422101796,-128.832913631425,-305.235360287455,-261.867353283135,-143.914945938823,-254.179405675098,-350.883679574227,-142.902062457495,-111.366022438571,-253.586524136822,-206.826568146192,-508.085170006831,-163.607041530567,-51.7843186860098,-153.685569197244,-443.119359538042,-160.103092590219,-215.608534243003,-549.480437187643,-190.647723442711,-178.110821457145,-182.679238519657,-183.731218144889,-175.024660344257,-184.087686483182,-186.311394028762,-196.028930261741,-187.615309037478,-185.224922324984,-177.825748055696,-188.98209705706,-170.175063057665,-199.040189681575,-184.993103748916,-180.325596223773,-169.222802028346,-185.065921852064,-177.005456917208
-111.497485220844,-109.111000398471,-104.213790812303,-90.6754858121493,-88.0434796234764,-79.4396943409735,-64.9391237388691,-111.158600531356,-29.8111518640096,-33.4612673175041,-59.7508052107268,44.9160588805195,39.3450452013204,-33.8679234106822,144.4266394283,15.1669424510627,-134.444374568212,106.560910254803,-15.9755913127968,-28.0913331199737,-45.1257417098239,43.1133911082689,-129.147456898918,-92.5708604534787,-25.4839802732683,-167.667280303274,-161.684803581853,-24.4578804780476,-264.054834528123,-204.820921703816,-42.5594779478753,-152.213905709483,-244.322171941566,-106.884982316529,-23.8902803360683,-161.783098757844,-127.57572993779,-413.447506353043,-109.358360555846,12.6369240904532,-73.1440908638673,-397.462780351051,-109.897754900561,-155.033557922645,-472.807529781664,-149.101467787532,-122.173462033675,-134.297054283622,-131.603731239774,-115.143205644384,-138.663360512858,-129.043021138973,-148.862096171948,-140.869134684352,-139.775157170053,-124.344607525135,-148.687224254778,-115.090677265912,-154.647129074335,-137.689521399478,-130.353098063317,-119.689477013928,-140.600246378228,-124.935431611062
-79.3197289843382,-62.6032430608378,-66.7876860038611,-51.7045809060938,-47.2003313349763,-38.0061981352461,-22.5368229495741,-66.3975311618454,21.94150096837,8.28872443236205,-10.5658309190781,115.231487394686,88.1413262326634,11.3918577895313,291.15722497524,42.6014947031729,-16.5144819414607,130.098475564752,-53.2341179879553,28.9729679472085,-5.03954297760183,94.840882575969,-78.4904842216048,-32.6277239439232,18.8383419296917,-129.703204778159,-301.973325111036,99.8697522961037,-229.732700699223,-149.783879090025,66.0444401105306,-68.7017381631959,-149.892588993235,-102.034004137667,38.8082128156565,-55.5112880622157,-55.9401112956251,-325.814839588256,-75.0398400879574,58.9923222214892,5.09157288174866,-355.292853510812,-72.5772201750491,-111.554363556737,-354.119649821651,-116.612692912207,-71.6350136810613,-94.6030648027424,-83.7936441922009,-64.9062969601586,-104.59119416227,-83.8250034101946,-118.875910543114,-102.378317690206,-95.1400147378801,-76.4317450630883,-115.765961220061,-74.5291592928864,-122.270473548183,-103.528060937256,-90.3302794305251,-75.9177509148393,-110.162513523057,-79.6414975488351
-38.5127355534565,-10.54316895541,-27.4168811856865,-2.95079905202658,2.5517020200043,10.7872154516536,23.8003908363173,-12.7094289873342,68.6024753905707,51.2301898181975,41.4467160686504,168.843599909317,129.738404913,59.0307015488942,351.681439687629,99.6458838779579,86.4628187358217,173.876424481748,-26.7665442595097,115.07333902245,79.4914359437715,158.452464356354,20.3195816695301,88.0602295620513,116.803923654822,-20.5255278287525,-382.925983207383,275.435365175681,-146.107043676314,-1.91318839704606,197.587218477277,32.2381094000329,-13.2451198445468,-56.6675717213506,132.116989424363,93.6274422821858,45.0662579069224,-221.783469989716,-11.2138191816538,147.193331711522,136.692460759876,-303.257787678313,-4.30430149831487,-52.8211684504763,-215.866388536827,-67.6643144019543,-9.69483356731283,-40.3704149171132,-23.6009268274763,-5.42639340923769,-58.0702833762908,-26.2534980669358,-80.9148565600707,-51.584925033916,-30.821170745788,-15.4389856299608,-66.3175012233229,-21.9365076039465,-79.4978815648312,-61.0150067306539,-34.8808215756428,-16.7784797140576,-70.5565871602755,-25.8407680572848
12.1623575290662,43.9251368516177,20.90166574916,55.7244568546926,59.665599596267,65.5758540534912,77.4813878207701,42.020329103521,117.107105345652,102.977190600714,93.8449179988555,219.42842421518,181.667476575135,111.143267844039,350.73275949936,199.870601669833,181.201491637796,265.988291409131,97.9032285216892,240.459919644096,218.372211666581,242.684200967466,151.178329284922,251.919170695176,246.789834514345,121.346114580914,-239.437290824755,432.225895610623,-22.0507869549642,207.307630529514,284.945544970493,117.415976289906,150.611280909577,30.3724885737774,223.522089755251,216.192801554569,125.267527555143,-91.9351396298169,68.1643490836783,244.195813223239,269.100543409935,-237.292714640333,76.1906130837544,5.20791696622607,-88.9489312953306,-9.9025904464213,50.720494783509,16.5230714938272,32.6805828029209,52.5766248277705,-4.36483362781968,32.8817497516353,-34.5431329278997,4.06977978324809,31.1404206857306,44.9281177390866,-10.7548231097124,38.547892262889,-29.5117230239596,-13.3688484102519,26.3370449217072,42.9074026535392,-19.9202936958238,26.4049142009318
38.1165166826726,66.4652015262833,52.5486596878145,85.6481393825067,84.6161162571141,93.171539770345,108.468410187276,66.2215394449891,148.69405892702,133.404778679017,115.477766633168,256.194232247029,217.755543456018,135.551044778084,347.142294974658,272.919055307065,263.854303632196,343.836037548086,218.16782926708,340.340997645216,323.544580844166,296.541747552922,237.663482734342,357.242610337662,308.869738373822,173.431556562952,24.9539751682544,463.464625264231,38.2417065002624,340.476154382798,237.891741995888,117.898743008426,259.203414129504,92.4785029123888,223.489221502185,231.155135521453,123.719936112795,0.485714271356979,106.286538907253,270.214467971047,312.291316759316,-185.292788249411,106.65480029684,15.7899166322787,-15.4734531182831,18.1275299324041,69.3517198840771,35.2069094891635,47.5588886508157,69.1625721869044,19.1013543511768,53.467886638313,-10.6937241676861,26.6381301239536,47.5950082438343,61.1428914181159,10.815937335764,61.3452546385628,-6.64644081517715,8.1608538469377,48.2761274155849,61.9207925495429,8.08104142054566,42.941945512405
24.0672637051447,44.3469041013313,44.1383934262263,66.3186864115124,61.9742199591993,78.7462888931372,97.0651985660258,46.3548168841208,142.691942529564,123.256315357457,95.7058637117658,254.699139614353,207.484711742344,117.637993013066,350.806427824643,277.515050435198,298.844141598339,350.343523769799,250.049800239167,363.179507176514,342.667233871214,290.646996465955,242.996909644017,364.012449309012,243.384212700177,108.893431466204,181.227296416643,327.005501269421,-4.65573478114563,347.287805549178,71.3652999080554,53.2202688256425,305.745947248114,97.0630904961917,121.163547644534,176.347145181523,82.5910088298437,36.2901890326445,93.1375168933487,227.67309358595,283.572179093311,-141.748761395184,81.6821710379131,-13.6649697936406,5.88958037701866,0.693130906198345,35.1120150986673,7.9005453972458,19.6452975432686,39.1944005262176,-2.47896083266154,26.1654430192957,-23.0062381632932,2.1391055364704,19.4638948052852,29.1262936938561,-9.33439720226056,31.5049147666164,-24.6540632852519,-10.3649325942493,21.4025180363746,35.2064757143759,-7.18871495980312,15.6777744027354
2.05057179823223,15.4076693865285,16.9836853206922,33.903078610139,32.031361178043,50.5129140834236,67.7689902464017,13.086147236347,112.872915620931,95.6789682759013,66.5791220939932,211.773597899968,168.749126473799,88.3376384466434,325.952540012096,254.438410560946,282.453480294621,314.789439419883,242.406926639139,327.936060847023,331.002204485078,254.02696099881,215.746285316793,360.947724799633,96.9304318597781,56.5696671442145,170.97048633221,71.3088286293026,-39.2211486911847,305.174557480201,-90.2576080493746,41.3992807343838,386.509480560265,62.1200649311459,9.69963708853103,160.705192148313,113.065773400345,113.117582136069,73.1886386514064,196.723380938524,278.399289875236,-36.4996621899323,68.9663413980356,-11.7055440047183,53.0496150226661,-25.0700536614276,-2.82241454032421,-19.3571159475613,-2.53472353309208,13.1183344689131,-30.7047447893451,-3.43075570699982,-42.0905812720694,-27.5324511596753,-5.16911653214571,2.7971436123463,-29.5653985782476,1.19157904109171,-47.6397052880251,-36.071526006952,-6.92613858821971,9.31015148773409,-33.2817080877983,-11.9710901784528
-1.50072670693902,12.2616156635155,4.36555596274955,22.9142012892861,27.2609612455015,33.5160562826136,49.5067766217714,-1.95145843645538,82.3455487228583,74.7830445604176,56.210775912663,144.41567130091,131.365517025114,75.1508338178941,254.901781163436,241.694577766822,241.249996004281,285.177055241448,270.385419870461,272.822378011137,351.167166762681,214.708376036719,222.861932256677,424.490780845248,-32.9428450250377,104.709907385992,103.121003491926,-217.634914421328,21.8522788256379,270.165756209318,-162.496737382589,170.033484843064,520.609005609692,-1.06622287789413,-36.3775625907069,221.749793696322,243.861846884106,286.961730456541,79.1807094498944,209.786601117842,316.700769850887,151.159096188636,102.416689501392,48.6297535521019,170.314357656803,-23.489637346038,-0.842044086824584,-13.8431460246212,6.35363962788996,20.8366556290583,-30.9274723534508,2.26176361115533,-39.8231016714433,-25.0243469320237,-0.79040978777982,12.2327934300234,-25.1676867828915,10.1386599850568,-44.0417206674684,-38.5640044177148,-3.74659521848931,13.7159507942308,-34.5025737689277,-6.87502313565859
-3.71978183207597,16.3982411030654,-0.771209310772633,17.2447810413315,26.4892749195731,17.8752985567695,33.3056279045347,-9.98124339015668,48.0159951743827,52.7979152199356,52.0542804400212,67.9744923147657,89.4303383386771,64.3523567731083,154.852171289991,223.860364920959,186.665673525928,254.369477931694,318.42775034155,209.986262235681,390.574751220823,153.40505394926,287.106271812024,506.725645417424,-102.619969268958,180.808927417397,65.2839148746969,-488.300202193523,132.630694877438,205.101448243898,-162.361163962146,379.306474078513,569.838345735221,-82.8132346424844,-31.4555022164582,308.345057107435,358.939703988087,452.95013528202,94.7264866121059,210.894509794446,322.617278584595,322.401134879864,133.272668688834,95.7679538807787,274.987000862272,-12.6263670754602,15.9700587500861,0.96894194039873,16.1487548478696,31.8572130318096,-19.3280392596241,18.8031363878236,-29.1263580380502,-11.0314341134203,8.94070551145452,25.6057109115759,-17.3954854853914,29.0789386518923,-30.8616341702109,-31.2713872020473,8.91269871471708,25.8220800205348,-23.6758838088529,7.45908822530411
-17.1219849060604,4.45320760556874,-14.6505892722946,0.847329884300203,12.9067955435927,-5.47718960364641,8.71524729692811,-27.015310258693,10.2967605188328,25.934920684621,40.2882928463773,3.94049353764742,41.114978663093,46.2635743748736,62.9956156318447,192.672767369782,129.808619098947,210.022221331317,339.792544460053,151.035479672082,411.055788337731,41.999227270687,393.348137152481,538.447771449566,-121.216063786376,217.75378180721,67.6315944027528,-667.445344882943,258.735828146793,72.9501617509948,-108.782273840318,507.108314722173,403.386847485703,-150.710042389045,-8.5296279286114,376.110666005503,319.191132510474,496.784018210706,85.6669833659292,151.204702415361,245.19991294766,377.732826983563,116.896190964398,59.1248480779035,270.881099509092,-20.8695388612201,6.13561520081132,-2.00819072185585,4.36287549974507,19.8013666782204,-20.5249133890327,11.1926753024963,-30.7222298304384,-16.4089201438248,1.72103895197532,15.8962163905987,-22.6726695249529,22.1914867409651,-30.1719676946852,-31.9103703980534,5.02177346877824,21.9656683462564,-24.5773159281157,2.27531387256683
-25.9628293210949,-10.8546651484691,-27.0171810139276,-11.5147362411852,3.08497533309212,-24.8218872335575,-8.24280769881137,-41.8699231310069,-13.0847451963111,9.02653316733419,30.3058770157561,-27.3423887853414,8.93712970625955,35.7371305478843,6.47623016567342,168.7776366958,92.3372948118827,169.895478349691,336.38816178771,113.322821405623,402.952006108555,-87.3733277599212,495.306816367991,523.056348127928,-79.4878859518934,255.585792409063,94.8342294972072,-621.816762696323,407.236158851288,-82.4695713722622,-16.5655956076543,463.13211308059,65.7201916805625,-180.617286359926,9.46406614950114,413.441874260129,95.2375254229925,452.079245035298,46.4489860020061,44.4585542725863,93.783659298885,336.564895527272,67.864036020768,-45.2652348629038,188.020850883471,-39.3430602370967,-21.4468303985816,-16.6574756027156,-15.5520566884564,-3.65540108126556,-30.1379930714199,-11.8636706444328,-39.3313605562237,-34.0216869273842,-15.3986645187901,-4.08053365632049,-31.462701039188,-0.989927298449333,-34.8110972670232,-35.7840764602545,-9.31937725357184,5.23688443354402,-32.237313135076,-13.6855036432433
-14.8202310329356,-5.74190010049389,-21.0973511004783,-5.77561440584139,9.68599975169525,-24.4499795749438,-1.30072953058397,-35.7049908277629,-11.460772307473,11.8483471012014,34.525652825897,-27.0319875393533,5.00484244959633,41.056171066715,-16.5218310284616,165.511546897066,85.0129524242397,151.277970741809,341.193556013349,103.371569348609,387.179159483207,-142.482561418821,540.002020439541,500.294051465921,18.9748469304095,330.368345522916,121.416308990768,-342.120462065696,531.765708933938,-177.375113131818,67.6155696179749,309.198397099948,-206.847461759259,-164.04906831727,-9.62531782483352,411.313442973942,-212.799689285881,424.808248929956,4.58438103990208,-57.8832807873932,-107.181790594448,308.454745253564,14.0720372384,-146.063336071715,140.410027905281,-41.1868406393262,-27.8464969791938,-21.7438885732282,-22.9325521222307,-18.2881830877702,-29.7685342195922,-19.8664945199871,-35.3332448560493,-36.528724012087,-21.6964164352988,-10.7483885482423,-27.4819273215058,-11.3542528943054,-27.8722231550463,-29.8715193850803,-13.8054298018141,-7.60618916809576,-26.1949081799152,-16.7881025304508
9.88830349266613,15.0526543655523,-1.34011335707912,10.9998603889752,24.1609842735378,-8.42063267002139,19.8360620016967,-13.9605804152777,4.35395187407259,25.5174750778189,49.9494334100279,-13.9372451281952,16.2245245847789,54.3128757140953,-25.1028336377841,173.887005887847,92.6388564946003,150.525969101918,359.097026690982,116.233823592926,386.551468615589,-86.1635736414915,506.965124379974,497.079668959796,84.1645158896463,410.473095629176,106.650731414147,-52.9535869039129,574.713929368523,-203.612427692113,125.321311919202,148.457738825015,-197.835553315998,-107.530250944664,-71.7719532806009,355.226624269605,-441.572404385975,432.31689786712,-27.0735061058495,-109.378167373622,-320.533800230059,359.20613877718,-54.979925869818,-189.45911203518,164.837431724813,-23.9921558848617,-9.02854596928614,-11.1251616288913,-14.3461741273188,-20.0841066381549,-16.5768233443771,-8.81468813264969,-16.164995690345,-19.5268984480821,-12.1114269194715,-1.11465958679002,-9.96425617144514,-3.96943827271117,-11.5521849225432,-12.9609615051557,-3.06922137602242,-3.9183847886038,-5.91372985846705,-5.32113117908707
3.64901096707522,5.69507839604044,-9.26318141365654,1.01057809322113,10.4417509992725,-21.884636488602,11.1692728721189,-29.1622371962022,-8.20538141146797,11.1722928008276,38.9194295179865,-28.4076768708473,-0.935419928316207,43.2092845657701,-59.8056194866058,152.266493501693,62.3080796891508,120.197576745632,331.916574694996,115.046195598517,368.676005904946,-17.9349037167765,390.817527102015,478.561664977806,17.5040431479371,416.720591406599,30.099683895613,23.9984387863266,510.583561978437,-251.055098467477,138.649003993882,15.6019505766559,-10.1354542760911,-63.3413563130764,-161.715276496077,221.658553963345,-505.710425057474,383.813605171611,-85.96303727947,-118.255749695839,-507.568746380448,415.625516442669,-180.739087964302,-180.405037464089,165.769149923657,-32.9702456311771,-17.5669134025008,-21.7221601903349,-22.6644076615636,-37.5451541191347,-25.3816135090811,-22.2706172290538,-22.2956588538083,-26.9722611375011,-23.0256918730519,-11.7160730841889,-18.8376966631974,-17.9897865576696,-24.5580729501856,-22.2146720202733,-10.8976897827438,-9.62659021218409,-14.6243347250487,-17.5085372498363
-83.6358528824247,-78.2964274863628,-92.1224573203706,-81.3809998243524,-73.8143023531193,-112.741823304148,-72.9780465109841,-135.092499565744,-94.3060464077954,-75.0308085936615,-45.9666711166651,-115.683999656472,-94.9859416592174,-38.4518961758123,-163.858688579121,49.3836476014708,-66.6955985113993,-12.5265439018138,195.200410372547,37.4566724698358,259.362155151257,-65.3123178595926,191.091326618869,356.335552816954,-151.459774572536,272.261574083734,-92.0190601307174,-88.8511462699991,348.101697645538,-369.819127620605,54.0735461341212,-100.476336488576,53.374087763074,-92.3076676191213,-275.40622638491,12.3083691081216,-478.424565634663,220.626873519324,-209.587540225841,-135.39721205998,-669.502585999272,364.729820688004,-383.672601810551,-161.975472158515,64.4033122986688,-116.231097208425,-99.5661871638446,-100.623231488142,-97.6407622038428,-112.608853039948,-99.9418158485764,-105.455830495826,-101.822209012747,-105.680913889514,-100.869449904707,-88.2040681371765,-100.765380549685,-97.3417783255469,-108.289697761346,-106.342455601428,-84.3579763094199,-75.8231243010943,-96.9432076586769,-96.8074858104229
-224.894271333725,-210.387512388343,-225.423595064936,-215.600585222715,-207.253167461069,-248.422292536599,-209.754566681222,-293.717718554292,-228.638435554288,-211.979350810351,-182.612224774697,-252.921047684217,-241.057996301904,-177.921969507831,-297.924844982767,-112.506205581277,-271.536472671344,-222.354294339292,-18.0589298305197,-115.34304918451,57.0034267015641,-213.853511291165,-45.9433616217024,119.403376666675,-312.457138656947,21.2342461353458,-236.098990908807,-232.180359581014,166.861604172119,-484.698696510017,-102.890407913147,-208.710609143167,-71.221892120324,-190.340585811407,-386.400207475701,-214.926507500275,-435.965054284204,13.9088111619182,-363.612814763542,-192.140870767978,-803.005331510487,221.071782477272,-617.182126194987,-144.269156857466,-81.3674001461159,-242.122991399376,-224.490616529688,-224.771688635908,-228.765270837488,-232.500555703026,-221.591903682488,-233.067896685604,-230.205511636292,-226.630116725724,-226.451078400344,-214.155442644191,-227.548196151968,-219.674952265013,-235.45920125873,-240.266931726388,-208.077016361393,-195.378161366009,-222.447635012886,-221.929865382368
-315.712055139504,-296.914844728914,-310.372044273306,-303.844029738047,-296.648049473653,-325.334989752401,-301.662951615283,-388.341517465778,-315.20615430894,-305.79242214766,-273.630411967953,-340.500905345355,-333.851379725252,-278.726598836218,-343.655918843856,-226.625446107979,-420.603567210974,-345.184650405309,-188.422454094038,-240.412210341455,-131.869506071563,-314.151165221269,-229.252425735513,-105.898815526227,-404.779117706397,-158.144597158726,-353.534144349204,-317.258772519409,69.0808079685909,-489.837140934858,-205.439769930481,-298.285920032907,-179.304649666525,-293.668085842193,-433.927903172718,-397.267259393299,-315.986355750365,-113.29128465239,-459.50174070728,-286.120396500021,-815.296674326959,99.7101748123674,-767.05360701349,-75.1509901798962,-153.580921774742,-313.452236502479,-305.670745216718,-302.90499312816,-319.315988286449,-312.172094607004,-301.700933699396,-316.463993077247,-311.839306640855,-299.292199751813,-307.720671729104,-303.785838058255,-303.735328730067,-298.775430437719,-312.314863909977,-321.713948220677,-292.344600762343,-282.089563036071,-297.034696144283,-305.380293903179
-293.567099891189,-281.248090808191,-290.20632295095,-283.828979914467,-284.657518267858,-292.480229655254,-284.042589298115,-365.786149796605,-297.915724822187,-293.055860810919,-262.300814464871,-320.306021409057,-313.129411123215,-272.166218742056,-269.72689222869,-229.846919808624,-408.782618444448,-287.262294122419,-241.365912493026,-251.216805702605,-216.289580181196,-265.718271622694,-297.719616967254,-201.961152449664,-409.877104518071,-152.542251431895,-362.623275395599,-328.5550326979,64.9229921796016,-382.737805970736,-190.41475270083,-332.71598400301,-162.658330408798,-335.788076675473,-390.93200099928,-517.651400208309,-90.4630098817635,-129.280469210008,-454.362233313553,-395.499296444203,-620.494320510951,45.4708540329095,-746.682830117194,59.6305072609086,-107.709871949108,-285.59481433386,-294.77797129223,-283.413029024865,-300.364766673837,-294.626877679338,-283.988039535719,-301.432539823479,-290.404019146661,-280.028925854719,-286.136097906588,-297.548800339828,-279.830480536952,-283.513356639561,-286.109047260567,-294.480095587041,-277.722059047274,-274.563253625864,-270.709886168737,-292.598929770996
-212.389433558268,-212.299169148052,-218.048618507916,-207.678397015048,-220.464433527521,-210.931533777561,-205.87300233439,-297.648797255102,-226.564077549352,-218.766344938099,-203.064392544671,-244.929913957509,-238.153556653475,-206.377609756424,-186.839306834519,-177.783279226295,-278.287933739366,-166.970636048513,-214.027185575635,-180.362885543876,-215.303683795468,-122.945082744043,-265.282536886971,-198.141604015755,-310.655926300406,-47.1884664809506,-248.910475653551,-260.485999408619,55.4066497283098,-261.175937308039,-139.932430546971,-298.727852720337,-124.512147643938,-306.694085726207,-306.570002246428,-600.409589732661,93.1649958683366,-128.768475772824,-404.34802954509,-490.975320111863,-321.002997249226,-15.6528760381481,-613.587021902745,156.150414828587,-15.2860666955163,-218.610184123539,-236.826791888857,-219.149974765044,-228.924978687164,-233.216510774577,-219.0238706734,-234.839354470158,-216.391302044018,-220.918573550687,-216.21636533224,-238.695694741014,-209.488612142787,-224.283476052158,-210.686526374272,-218.904716229611,-214.881987109182,-217.437388124772,-196.929392999481,-230.583568260939
-155.450695400341,-164.044853328976,-165.411282254866,-155.476676597956,-174.801175051655,-154.824028562689,-149.739333525843,-253.961739964422,-172.208297041784,-160.181556869398,-165.713489875652,-187.056493049776,-183.949503135103,-156.867028313081,-170.822732708191,-144.230126143625,-142.994792847578,-116.166163339568,-173.680258101037,-104.997123128746,-191.834483094616,9.96310208310273,-183.312463966526,-193.587822175186,-132.570866809184,12.8292743285285,-103.450034483952,-138.796851877455,-32.073653076514,-180.27506308849,-130.879743741684,-234.304297426511,-154.7865052255,-255.777433845217,-234.118325714538,-652.544598771812,124.299158900014,-199.495451547403,-368.766913229741,-547.780470155908,-116.815021407878,-118.019550926886,-493.839499941404,126.04762661879,32.6745943445634,-181.774086647733,-199.84937727573,-183.039463063794,-190.587226376034,-204.977075746422,-178.285835654151,-193.6652028857,-164.798654710667,-182.706376575106,-177.184356272004,-202.99889783734,-162.038549017048,-192.567080882778,-158.936778614802,-172.290903513268,-180.02444290958,-182.739931074847,-148.687921305975,-189.659771202792
-116.122862006836,-125.556215593838,-118.925321786533,-117.933705895636,-134.135976212351,-111.584321532031,-110.178783564341,-200.21033920853,-126.686407994671,-112.199186943782,-127.509596083343,-144.202124963795,-135.747384514283,-105.251599763577,-172.056046553262,-119.003908375967,-52.3122853390935,-98.075290614513,-122.888988668416,-36.1284332563226,-156.229204146848,105.059823395884,-86.307686453345,-199.311271514839,57.0215208376458,22.4464091512595,13.0301045754789,-13.3860226262389,-112.199970250244,-77.5382743053635,-88.4857293101263,-149.455974848602,-185.820569411698,-201.786950879355,-140.135437455414,-594.810381731115,107.946068765014,-279.901127537448,-304.011634173618,-518.422164683203,-28.4078336598957,-150.23781162308,-390.753916121938,46.7398915681407,56.9338402071023,-153.026614240001,-171.571453455633,-156.089203843674,-165.427414110459,-184.120039361664,-141.623193206678,-166.528323014236,-125.624186968171,-144.487931216164,-148.521320288643,-176.467445661373,-123.427619492264,-166.966408717722,-117.256514257197,-136.43884287041,-151.782756113735,-154.035557343008,-112.523795803055,-154.231124393093
-35.1418060603655,-41.5041103284848,-28.2469526682673,-37.3380106777291,-45.481928497763,-32.8032186010546,-30.4286634403055,-85.5376111569713,-44.3845271805086,-23.4925517918535,-33.593966814752,-77.1003343412777,-48.0984653245915,1.98582545961223,-129.873123928114,-54.8379955606013,14.7147361228923,-30.9407431348381,-31.0138373618838,51.4751401525448,-86.470271334996,187.241830828228,17.4643616539303,-151.742048564218,212.738714096314,79.2188728126158,134.335687940804,104.281578348854,-56.2992574113986,98.1254681985093,77.2097752413292,-5.42603348965954,-107.594920810025,-105.9846425576,30.5350657826689,-357.933790308071,193.508897467342,-229.558613152686,-148.447790763167,-352.893259564495,95.7382647932933,-15.6487977571429,-212.008493866871,56.9806539275139,147.9923143946,-69.5134951313653,-91.1843198669989,-72.3810437310278,-83.2136630488838,-97.3994748657367,-51.6909130423029,-84.4547543118791,-42.7555702587894,-54.6500158802666,-64.2612758232475,-90.5472220861991,-38.5761670907612,-81.3478310205997,-32.2980259001244,-49.5079214545528,-62.5327098033504,-70.9728003947556,-31.129129547234,-68.2495726266482
78.6549608624663,75.8931379919853,87.2598064019292,76.6038021314773,75.2307861777821,68.9476440943388,79.4810407999821,53.1487662256927,63.1712091059938,92.5299820790194,91.6327504866098,13.9979869639973,59.4010250673114,130.619016929282,-43.8926576368883,38.7989855915393,76.3331077392902,66.8229701088681,78.0701224894808,136.014335236972,0.900599029347706,250.542200768597,112.82297618516,-47.4848562439862,309.168176872391,199.921123435359,263.398934371666,222.694950807336,100.516090508342,250.919947293673,289.045236547871,187.357441662039,75.9692055697619,28.5870944528592,220.511896614969,-32.2948043149791,367.36167829213,-17.8837775515773,44.3890683595479,-110.305353406158,300.363747629692,211.743333698643,34.1590240703253,172.679118447521,312.610422252472,58.2815547677946,36.9985117243551,56.304197903467,47.3622186414831,38.4339415734839,72.6862547116314,46.0802463262906,73.5545666213807,68.7923639206241,57.5566214123156,43.2332313897066,80.9185786580399,47.3537446075971,83.3690134609279,75.0290740328804,68.6402934253035,51.9529128200533,84.1779707050214,52.8647212814164
162.646392783819,164.702038145208,166.035044908104,163.927145540583,164.666209509215,145.371461130157,160.635016039472,152.418375059201,146.996381846566,176.277185422838,183.382735871004,99.9404871608946,137.253845835955,210.422709159878,60.0862945423946,111.991175433058,127.953386788924,137.15226439049,148.542822447484,176.190640219448,67.8291648000147,263.153154973072,170.374982582928,47.3142538534699,324.690957871263,305.589729912356,328.745149047823,324.400254455714,220.080949852185,261.731269367666,421.8761476665,352.052465330261,266.0663172386,146.470381095612,324.034679504334,227.068701346973,514.357335402454,240.87148154502,178.307497709644,75.8056081741311,471.074002549915,398.327072781179,235.303448060427,302.142151412863,464.789771197104,163.123801270263,146.574757663588,158.579089865205,155.78212797879,145.975604679564,167.805110293063,151.918110130209,163.158120431227,165.08087242903,148.90383491745,147.653426869163,170.167807034063,143.751369846984,171.741160750942,168.080850180027,164.994768595356,147.925300804932,170.859590872666,148.102789314065
198.255843419513,203.465664925186,197.549765461024,204.716802754014,202.862184715975,184.196842312059,195.812536186214,205.133921999513,190.134250341259,212.099196584817,225.789649031319,161.581778236726,177.764475201847,241.387779026237,147.414019395761,152.351975630328,163.839454287708,170.499245306814,175.187360356271,179.946762294926,106.849647638336,236.383045704367,185.578164301313,93.0110846106959,290.76410707329,344.102093134136,308.46094357636,403.926217982468,245.373977098312,195.28864669506,464.200939491585,428.513427850919,387.121628397448,233.587522476829,351.509233511099,363.358187604793,570.085536458847,413.966046592495,252.582699834084,167.943758101194,528.254935304468,491.052599470179,332.727622856797,371.959009385823,536.858083050484,214.350188244214,199.271803791331,206.352886107135,207.921590615369,198.438413979896,213.091429078122,204.327031230896,204.96166248922,211.894494659962,194.168558007543,193.11104220866,205.136567570308,183.462020768473,212.295351224037,204.336244120978,204.767341294703,193.146777979007,207.008165660191,196.207024504579
209.527284330617,211.725064801978,209.228420380651,217.119585558617,211.946682524508,199.282636692499,204.563862231834,227.865909993184,204.300128835292,222.14061144781,234.667209052615,190.123962764596,194.51402484477,252.818858054937,186.346245323788,183.629027463283,179.752674698851,182.842711042101,187.809123670224,176.016977393722,123.974916782223,218.764570506977,175.534354861907,94.8444512831581,272.667562076077,312.688098352679,264.446533400174,472.260485127598,205.687137132953,211.093745580998,449.671844334793,419.686056656726,439.347732724027,313.800856297053,380.61016126855,398.04678220363,547.769885649608,462.429421164726,318.585569333202,221.21740000694,497.882830370091,499.540351012383,357.063546639204,376.493012241317,524.857007284138,227.697397161184,206.827267406893,218.556267395364,219.443755864929,217.238369312294,224.18667432668,223.856941859898,216.035769625934,221.768688191577,212.195649219195,201.916741933435,210.102297299164,192.610112177842,223.32055195273,206.94035868028,214.521199866374,205.364373347435,215.84312388127,209.952282902157
212.627962439548,209.01088340716,214.772470219013,215.169528556234,211.550502106709,201.756256218777,200.306131817606,227.058766836303,201.096226027659,215.750327700643,222.509662981174,189.046087170511,189.675583899599,245.671218691514,181.972774425412,214.025981756156,173.446078325893,179.277290851669,194.791844304525,159.804226891061,112.059826404333,218.887849098193,134.59416001006,56.5176052043294,270.940809390005,195.061927864369,235.641611264725,499.393610371579,140.084134414423,316.923118577927,386.514824805515,373.172800544008,461.203497164042,379.244343749031,408.417462655939,371.9123072554,493.581584661689,438.231780602746,372.526949527109,264.386623475442,444.709734250502,449.86561959577,356.981537119409,350.346483952323,460.190045173675,228.191478060518,200.348216179217,218.221745688403,216.650164086639,222.385529627897,219.607601799783,228.590201364446,214.425261631724,216.77688074912,214.4274185213,198.061442678628,209.345054536846,194.480499163519,225.148198801555,202.313052871401,213.820035108001,204.17111931316,219.645128780106,207.280984047877
208.830720397918,204.55831128647,213.886766473162,203.542680335519,206.146856975754,197.616871325308,186.581992872028,214.346414111206,185.847600267179,191.335605512742,202.169317197795,170.785388594726,168.610404696733,218.035062069515,159.558160351587,224.072522297739,145.036216273861,153.867021393683,187.562456423035,108.325463242592,64.0659234396751,195.211914832934,37.9226702957457,-23.7692946797682,229.394461512935,-33.699840300398,205.903998053186,436.439245799329,76.6651249859354,381.898083037848,295.218677986983,324.409810269525,465.614732947414,396.565024463392,386.365133430505,327.856543879435,436.352946693349,388.616698516575,375.091795515483,290.053936479018,404.882789644093,362.455707244461,353.690915755601,316.301454592838,371.089650066394,229.110785614319,202.229010586688,218.56672286059,214.571726308029,220.438532125402,215.134435192606,226.450026711588,211.555466617091,217.450961770982,212.916015923665,195.973516997601,210.392950668819,194.382229073104,224.391851900977,204.09639933971,209.96237811091,200.942352170307,220.100322246476,204.335330859585
200.910486425384,198.955444260705,207.043062249773,189.027790853209,193.961110988585,188.55240448885,169.825059997669,206.287282836914,164.268056376715,162.295852781236,182.659356008902,144.597984760602,147.153681667916,183.438142544749,126.442868926253,195.892167088509,99.8442107664705,102.104562761337,167.416271966764,29.6353570049489,-0.0169430153165404,135.398401282337,-93.7917145769607,-103.327119093149,146.131653823483,-294.280695500428,182.949887363615,309.401423290923,37.7056230846885,356.330596257437,215.331456248196,275.429908322871,440.517264059412,369.219132890414,331.749017734769,285.999222902233,369.443472828157,319.561992108981,333.617938353796,297.118705845464,366.618885127214,252.819536427418,341.590897168292,270.798416741909,277.976228578785,227.166409547827,210.851914997255,217.529760483915,212.598087820595,212.002930559278,215.858486200556,221.497627851634,210.25641042558,223.382599025882,214.645186095904,197.972254252215,211.481127489189,189.660142686584,219.663451435966,211.081557978645,206.606123247174,197.704163728555,213.743181308461,204.941016944401
195.815071052258,189.82887268844,197.406786599827,178.384140051676,178.445833016282,176.505331213126,158.533551996518,204.61951951292,145.698855145282,144.985404448276,163.095949699233,119.540211799351,129.279375297381,152.437302971257,88.3454680976925,136.800641308951,61.6731117035458,35.9947924760615,137.630702443453,-30.9755933273109,-41.2372759726348,81.2821113892489,-176.859790828576,-116.741972432974,85.6350167032708,-400.825122372113,193.981477294106,214.265864609483,30.3403886459205,315.326621001348,163.718222455334,226.205227111994,387.906994346586,336.619889078245,289.159384443373,246.569743166274,284.248287573475,246.999670532982,294.272176724685,283.785291806313,312.989222604685,151.69008869996,311.168128274668,216.500223684857,208.85055766876,217.470885089043,210.304763606241,207.51252466198,204.976686701357,199.281850518645,214.127762517989,213.272493343911,207.096605548572,222.18204992175,212.222509456393,195.239490313068,210.818658945597,184.339240399476,216.382277860964,214.649971644835,202.587583807808,193.331859536587,208.938815047828,203.467803107796
182.516052130707,169.953255914375,179.000192753305,158.964293177591,155.046345605576,155.001164279597,140.448131772874,187.093754143191,123.459593472754,122.537475426473,131.477228218433,91.9161923049185,93.3868282726438,114.021218663615,52.2904212529385,59.8101375583938,48.5527443899644,-34.0907778447126,76.6782197631238,-57.640629050119,-62.2942758434199,44.1195310704364,-172.883064038583,-88.1716223496019,63.8767053246809,-307.451554891976,199.986310052577,183.28038737858,22.3962173588202,293.87085367544,113.290607450402,170.399394245209,304.407852050911,303.501720013747,238.686767630137,201.576479971653,182.457791231284,183.882147768943,261.74727841428,230.658880206379,240.443819463929,74.8385902105712,253.522971619977,157.006577703172,168.481237773498,195.733423177921,185.093587804303,184.593059157258,184.700301706819,177.070694195781,196.280611025484,192.481978630157,192.129950830113,205.101161246812,191.453639675266,173.698451220222,199.479148144767,174.670698435112,210.084815455901,202.220472903728,185.418017207786,178.224939948379,201.333849460782,187.364352955895
137.732105652661,126.708134499638,137.43336931519,110.890577607153,106.982878629131,108.241766056432,89.725340629756,136.336302289626,74.9874551592148,66.3077001069264,75.9567985422123,39.9231637687997,23.6051530539998,50.7228312109009,-2.05157533455094,-33.8271897795002,37.8909474861311,-117.193675046862,-34.9732606726415,-95.5876943915382,-107.685583725229,-24.5001372352675,-150.836972749717,-106.905939746595,21.97742406889,-185.922697690622,136.75316520796,151.139476360631,-29.5626839313994,243.38262216219,31.9386229816168,82.9720338419487,172.487434095949,238.883369755052,142.193850555596,132.515883227207,60.9767899592311,103.05108542069,200.684344020404,127.439108341158,139.891064820304,-3.00305601306061,162.961701047065,72.7156274912252,118.803764366097,151.680275024802,129.866124494903,142.740657565587,141.08835070536,131.676475172513,152.771043369999,146.074111091959,152.617707688921,163.155816111701,144.154242612536,123.658262693403,160.289712977649,138.362349465822,176.646529363383,159.212121356037,140.767490406159,134.711918123319,164.325580201368,141.786377283404
64.4679465218157,58.6729569049561,69.6803025392887,38.6806148832141,33.9328330630243,35.8430309459301,9.10619216324529,67.3788765212346,-2.39699862388664,-15.6926542052879,1.90916863616951,-43.9397218522243,-64.0959881224947,-32.9199642326253,-103.523527529101,-134.10256105659,-7.09064005021941,-212.919000270602,-161.786531770135,-175.114610061605,-184.421949940803,-137.028472520795,-175.679982385377,-183.328508468315,-58.2297338150135,-150.939882954876,35.2477311123192,84.2600786169902,-111.116031046798,159.729878384839,-66.8233386089266,-36.4710978868382,12.7643536882035,151.562130640845,28.5025114587378,37.7916362344562,-72.8907361726061,-7.35322137873431,115.970137725004,10.5274090113816,18.0656628783903,-95.8205826146145,63.9408349201102,-37.6220890022863,33.9262191065567,84.6882379858756,56.5867887720714,77.8623293838452,72.6033715239652,62.3359434211814,87.2219028943824,75.0037988415487,88.8744415930184,96.7773393583452,77.7949062296176,54.1419658802775,91.9380433392851,68.1784928408966,109.945002255188,87.6378013730466,73.5991710812081,65.5454877375544,92.1334931541007,70.6693754733609
-6.52496122385904,-14.44391407126,-4.8553880403617,-32.6959293061848,-38.8973564243666,-38.8670701990701,-67.2260968888866,6.24390976479889,-81.4865063866307,-91.0551068264986,-70.62552846647,-134.751801881285,-141.892592351507,-113.68647937874,-237.65691552971,-212.840183061605,-84.6882924146314,-292.258280627222,-237.921876460334,-254.685587822325,-251.80483210961,-228.641768625109,-221.335654375373,-252.433216388669,-115.218359328711,-147.269509949429,2.34863229320513,25.1603681422056,-162.626431372448,106.344023086835,-141.62304364618,-139.754534814131,-114.86262073586,96.1164483410811,-41.8167169437479,-46.743675874772,-184.17938238994,-104.090151014409,60.6281971810144,-59.4062935412822,-80.9500682714033,-170.554670805442,9.11394603787288,-121.743580179448,-58.79689098638,18.2848166985034,-7.46118553468647,6.36373560318508,2.1756215809553,-6.50638881763601,18.7683271223524,4.8579583768193,20.7830723572636,29.3437853770189,13.8730798636929,-8.15492739419608,20.8333693486818,-6.66641362540383,39.7081278351594,15.991060997401,8.1868264430309,-0.189972575580261,18.2386857161811,0.670872609719102
-55.9775529786288,-71.7947548546228,-61.6349087375264,-85.3516533360209,-91.3921281515957,-94.2446697217359,-118.403052153886,-39.5492905707396,-139.590715978856,-143.041244218846,-127.452472337112,-202.147945191544,-197.005155284874,-174.944267540362,-347.127981985394,-257.630221271952,-159.550455093076,-334.74801248332,-252.357783253544,-290.167565483381,-293.264860285444,-258.46902850927,-248.489157538608,-294.544257120108,-125.882388136979,-138.229387715027,68.102855522244,-20.4119194891078,-173.952712652224,86.2099281388534,-191.017034002855,-196.032937048291,-190.662971909866,85.3217748796961,-68.9546989721268,-101.280575234964,-248.16196073429,-159.063360938103,50.5073782902648,-75.3593986204759,-130.993202067735,-202.176302412509,12.1858185236661,-145.580677648386,-126.928319685587,-23.1132896062959,-43.5937076870233,-43.9847297380252,-43.6517527608824,-50.3467234430694,-33.4172605487741,-38.9375931230859,-30.2012528014347,-18.3897319121812,-32.1520530150003,-48.1374406385281,-27.6697222382363,-56.1194352830436,-9.26458666904228,-31.4931247861438,-39.1222437398349,-45.3832436973791,-29.5458493999181,-48.6464862375473
-96.998987620177,-118.397022247362,-102.13411501983,-128.077688636814,-133.250975610672,-136.28455768273,-159.84803751172,-83.4289089475729,-185.156918600835,-182.354802679911,-176.363503979991,-246.787337884428,-241.686956778997,-223.16336976753,-399.778993438166,-298.706241042324,-220.814250206126,-366.475205369851,-272.821509986422,-315.097083726906,-343.605837134131,-278.448196532094,-284.133911561392,-357.627460907975,-164.243194258422,-177.784700194582,116.726642214657,-119.205876747938,-208.199247721137,10.808697302563,-263.919183553671,-246.351445036008,-266.052939936914,55.665934266912,-116.653919641365,-164.670041648675,-292.417662470162,-211.667994542278,28.8664356743529,-100.865029353843,-174.816507241188,-220.213730725726,12.1174974929838,-156.342505981156,-189.819127617997,-51.753145136307,-70.8340611816066,-76.605200302784,-73.2600511760024,-81.2868605734665,-75.3156272194943,-69.5906681680934,-66.4185050367196,-59.7971701815428,-71.8992744883629,-83.3993151235485,-63.0031424516325,-89.7662644292508,-50.5261986143461,-66.4766728603419,-81.3441339126056,-85.7651144222135,-65.7036034416329,-88.4293891663297
-139.806746311791,-164.414491761204,-139.540936375144,-171.9785856479,-175.288799134427,-176.341343365292,-202.25091318397,-131.957192603975,-228.73105814186,-222.379284649512,-223.9363710081,-286.519063813494,-288.133732940187,-267.471820072864,-415.504590687333,-360.867990335421,-284.581050586522,-417.455579677324,-348.45657921841,-376.813837146862,-424.090038602405,-335.591472567758,-355.801345155457,-459.311162382127,-268.634620634528,-275.988892826173,33.2630088782835,-273.027718579175,-294.077933737269,-148.955780532778,-364.188695469123,-322.859914921108,-372.620591140352,-30.2437997558598,-203.993381974875,-256.706825655239,-346.419030679363,-292.503036343895,-40.4740881853939,-167.422236481581,-251.37194431863,-252.907061387406,-36.0721240409446,-199.006149739466,-269.749970684323,-91.750919759131,-112.40025464053,-114.364997218955,-106.906896029542,-121.435746926133,-117.603567239025,-110.099187760707,-100.872586673107,-107.483786210498,-116.559476798304,-125.566844169588,-104.484269469122,-127.312137955672,-97.2345334660344,-104.622648339618,-128.858059746164,-131.071911886311,-108.473041754209,-130.347822012335
-156.653999100509,-184.949752846918,-157.854680003272,-193.251923365674,-193.80512493715,-194.028829151752,-217.547894050089,-157.794104283397,-247.90449222605,-245.647090462696,-246.440911016497,-309.646992084655,-313.050273829689,-287.353778430288,-410.821879430312,-408.811149904803,-333.543344979323,-459.81067867132,-426.833892643239,-438.969993633353,-489.713827892218,-378.956860997064,-415.172951948322,-534.886310910362,-348.724114071149,-343.232605090064,-133.374824370403,-363.710599775271,-361.263694765741,-288.982617657895,-406.557250750852,-367.697509797827,-455.97085579876,-110.542801903623,-257.092778159992,-313.0866049968,-376.166552845769,-354.42601024291,-104.966191218017,-215.90705988903,-314.627758913919,-276.204943333515,-84.9333311357799,-231.757979511587,-328.358241410234,-123.124586361659,-140.2214521217,-139.985112071348,-126.196978158836,-148.019856122364,-137.13327007962,-135.645948653726,-121.434748500625,-131.022851236537,-139.496294567188,-144.769959269367,-131.287259360029,-148.712588611231,-119.529332969891,-124.281822892615,-152.112631488777,-153.255870150471,-132.972833894114,-148.890677774561
-126.179037476501,-153.438530556386,-134.688004001344,-168.139275615459,-166.959538451289,-167.284704707859,-186.765773603313,-135.131074721035,-222.151115916187,-225.033350810635,-221.996020613247,-288.001452624242,-287.817044162271,-261.373039646705,-380.793752906333,-398.188840954235,-330.838386123986,-447.228770541927,-435.60897456505,-437.224651250967,-490.31971552743,-349.418897321932,-405.073673195232,-529.610311141417,-316.88612875503,-315.982792337446,-244.165406364189,-313.228954185847,-346.835189186248,-320.545951186955,-337.095358328083,-328.615751331823,-469.027104259818,-123.285764646743,-221.191022555732,-285.952851693653,-346.234456566415,-356.205889061502,-111.642321394349,-200.402255328202,-310.484880795978,-272.911559321383,-82.3451227220179,-210.370336885081,-331.776841733386,-111.371598594069,-117.9082433711,-119.410644631495,-105.535061507638,-127.549070456401,-111.562049792987,-111.687641344551,-106.142591007343,-105.714549107034,-116.391157957949,-119.152837607383,-111.634664928991,-127.060665425301,-93.5693402756494,-103.553075943308,-125.907433140556,-128.888395495489,-110.928931493446,-120.623744151918
-83.2412036972848,-101.617012653901,-90.8307852363838,-122.915639984141,-124.49325217933,-120.286495719743,-142.725549473153,-90.3658176821766,-176.124969129011,-178.388264249374,-174.387046064877,-232.264385730229,-232.994406490244,-215.717817469287,-336.191363690713,-351.431655745736,-290.182453321259,-392.241173991633,-397.590154249291,-381.555496149248,-451.560865310211,-285.316200559663,-350.121227909471,-490.632461878517,-214.011009550434,-252.168983159907,-249.242837059496,-180.356070624789,-298.350191255944,-289.907829847151,-223.156715334315,-274.583467921828,-464.848736880202,-101.722507514163,-148.59138221454,-239.971817109416,-310.011418081605,-350.887257748682,-94.709601993707,-168.203860516009,-277.507777307755,-286.698575509074,-61.364268578691,-180.592801774409,-324.908171714844,-74.8212832939362,-71.5240039237711,-74.1350251596342,-70.161712775279,-83.5036291519948,-69.5886889544571,-66.0138797508984,-69.0772257793021,-64.8094154998587,-76.3653382437627,-79.8740295657021,-69.3241512107936,-85.1429197280305,-55.0688338108436,-65.6887181710423,-82.5432700076807,-84.8364992017784,-67.7556551271276,-76.9183631171947
-64.0594258124361,-75.2297539890546,-61.7837541354056,-93.2154453843274,-103.577726854203,-89.018180150112,-115.373180274402,-61.3167412898651,-140.477275919104,-144.675454126636,-142.331964831227,-176.172107775305,-187.576123008945,-185.623165140286,-289.183312275032,-316.669552201983,-250.338775420058,-343.346767947444,-380.623185478978,-323.081913552465,-432.433692686924,-246.084862546529,-315.426589850843,-493.359532462976,-124.619018523224,-239.989809448459,-208.178546009018,-37.5327484745958,-300.708030051741,-281.168206707452,-160.075834075684,-312.091459146821,-507.075808128002,-101.655172308737,-118.768428474577,-255.599743831428,-343.060485582134,-399.715403372958,-113.194956814657,-171.465680236181,-278.764551467193,-353.833847513219,-69.2747388791128,-194.474349362063,-356.239527842962,-53.1124627535647,-45.3893226772777,-48.9324860337638,-54.0364336979958,-57.8973983549461,-47.1571627744141,-44.5690059024763,-42.7569905649491,-43.8920864523893,-55.2038347591605,-59.5134751743725,-46.8176435417435,-60.2295276003904,-40.9399580680353,-40.0565579752243,-61.1810950303351,-58.1757160103259,-42.4784109312039,-56.6978514821662
-48.0729064731292,-61.2867718496199,-44.3115928596765,-71.2509524233275,-87.4183637151713,-67.9828795136812,-86.5376113637836,-38.0909813906071,-107.780507478512,-118.656467907754,-123.689657129952,-122.279966436099,-149.50736112688,-159.070187288471,-225.028388983029,-289.59143904112,-210.557049840692,-309.426169762846,-386.711771619996,-271.977570963065,-433.719578120899,-210.454279451072,-321.18278854801,-523.939920312918,-67.0288176033096,-274.475026988605,-184.258432482929,115.242133736856,-360.522487077646,-287.484401154206,-160.958640026341,-428.157243765996,-545.674564915943,-112.465272464062,-140.22076692612,-311.827497486263,-416.66589218236,-465.134849938635,-161.663783783215,-185.048148842644,-293.405096454229,-426.239601878118,-85.6800853788078,-214.590807240493,-386.973539615209,-38.06594027931,-29.656283028294,-36.6548202056542,-38.2494883909805,-41.5695702685913,-31.4239706273171,-34.1346325858164,-24.9416481668736,-25.501857159012,-38.1362860697527,-42.7098428644463,-31.5852791388928,-44.4869851865685,-29.7970192333486,-19.0356972143151,-46.1602329051605,-42.028658129257,-26.9228502967301,-43.1116758519491
-14.390216163255,-32.8880353448635,-20.8795940561263,-41.1741557702742,-52.3621840958636,-39.6666503726322,-45.4658881565472,-4.57375520316625,-68.2855858544278,-80.7483328379065,-96.2029938539549,-64.0251104523106,-102.587630975726,-120.705704536227,-144.121851185333,-247.954230687002,-161.334432791501,-268.04241880717,-377.304072028386,-217.204474980183,-418.309647474993,-140.57083848168,-349.095192315497,-518.722153109575,-33.6054063642529,-293.682438694019,-186.936826100378,250.960802094482,-425.048046678105,-248.594816938581,-185.474734576388,-502.941465754132,-480.410184369352,-93.3187551495463,-176.605545963872,-346.205356922837,-425.296021155275,-481.570437205007,-189.438441483258,-165.006418149246,-260.497920429673,-435.314292663083,-70.6880551197805,-181.263107212478,-356.705094840368,-3.09070752253728,5.13957395794824,-7.34052947720178,0.117617693163651,-7.52627593609766,0.169342559061937,-2.34729931357947,4.45370932167245,11.3011313971381,-2.5261718872517,-7.6243990426206,2.51205002978411,-14.010682854054,2.39442267103265,11.6213195118803,-14.2711965079933,-15.3459206674315,-0.387209240184696,-8.41293887460841
18.0295925008499,-1.20009119118089,6.68030200070162,-11.4419648501799,-16.2367693608106,-8.17614638663604,-14.7214111657064,24.1160255720657,-32.6636634897721,-44.5512669681133,-62.9349690446077,-18.0952147148567,-54.9251448989937,-88.1897994951088,-77.5007166376975,-205.433291491128,-120.482641958984,-217.511346073216,-348.773875230332,-171.688274306433,-382.601164104687,-64.9499372968657,-382.130089800204,-467.184664661113,-40.2325606312733,-283.319947953748,-188.057545868036,275.522047223652,-458.416323488808,-151.711520767232,-207.378891175391,-450.340891096642,-309.963355994139,-36.109921341877,-200.356056177418,-347.244484216413,-314.331102843163,-456.598097107636,-167.389379455358,-111.508285892666,-167.555626810024,-388.102930023941,-24.00857621802,-97.5229725979651,-276.453294408546,46.5470206268212,54.5911561743867,37.6372387657512,43.9441066239311,40.9932949294106,41.9937508594522,45.5093003249176,41.9622445668936,52.7523096661052,41.6332308844945,38.1646566182153,42.6593306039554,27.8359080571864,39.4558855483498,46.9501300614071,23.6371329063609,19.7580947930826,30.7642772492838,36.1534973757117
37.5840164260503,22.1482375141442,31.9945565569866,11.6806997764183,4.83353121165515,20.2697751311812,0.84822506069401,40.1184357339273,-5.06340509174113,-23.1368661546099,-38.4615817581386,6.42263820415972,-18.2857374966232,-68.9708495474879,-38.3697236678228,-180.099973770902,-101.770821008255,-178.484763955111,-323.631309837727,-154.678981460424,-353.126994947082,-36.7169441615016,-404.686109076657,-415.401858706404,-86.3700908691131,-285.984560494633,-167.479017841054,160.602922843251,-458.447508281546,-39.7653756537888,-218.622966758117,-297.30933402483,-144.434496921287,30.0245398520616,-188.210314722337,-329.506366209448,-135.788416019308,-432.506752569504,-112.185363966937,-48.6468969343719,-44.2789416122335,-341.263868271563,32.6049852210996,-6.58397550607352,-201.343558435925,94.2817108803094,98.6893516438173,80.9384237461451,80.8535222087018,89.4892454666446,84.6733353910284,90.0808987235187,75.8911778235662,85.893496038975,80.4433656288203,81.4894824155655,75.3543271670427,67.3004790571043,68.389663995635,78.6820052478281,58.7045126879618,56.352090419862,60.3605229505242,73.5284040303364
46.835457068887,35.7798649967849,45.1754793039222,25.0996112737505,13.6859774803168,36.6098554838339,10.2510818971356,45.7272341098197,10.6452554029866,-14.9425842682541,-31.3041548038854,16.0704357898273,-2.5063544300008,-59.832165280396,-21.3089310533499,-175.694201135793,-101.99845713599,-175.145574472877,-324.487722389857,-177.896205516678,-359.443472716395,-80.1779302992434,-413.149728971306,-415.518901521975,-145.975095068984,-334.472688712878,-144.530457807671,-11.0996224075279,-446.231631448293,36.3579470863925,-226.07515408546,-139.821272842392,-96.393591960885,63.2824430287397,-135.832561274709,-293.724291457064,5.72025769906039,-425.511943673996,-63.8770877292031,-8.01364161446583,72.0993686693294,-335.970899833193,75.8077925229846,45.6430313318673,-174.38779696412,121.598062391027,118.284512982683,103.914321741241,106.171746726229,119.130610836155,114.263079773204,112.91748417315,98.6104194703674,104.651608063631,102.108219930986,106.736873153614,97.2771121346765,88.8745964589372,89.3674070067327,96.4027939865,82.1399759642626,83.0925328126771,83.6326110192571,94.598655952214
36.0006325290443,25.8521526993489,33.331527846154,15.7575925187765,4.01763659132455,27.5730091759508,2.2299899495163,28.9804494814994,1.86681925864014,-24.8469679655753,-48.0027142742507,11.4274595713689,-17.7598428766813,-72.7182827581006,-25.3481850014949,-196.660690562671,-112.07546762198,-209.905703494675,-366.871126394865,-242.32943260417,-419.032458548718,-180.462832800003,-430.511518521583,-482.884262121426,-217.616689188415,-404.183096705254,-149.550384958091,-173.47088565704,-451.336107808118,48.6238266965629,-254.763597109513,-45.4125562430367,-183.724358402367,36.4690473745316,-92.3930844771861,-243.372601886571,54.8055286892469,-430.217452564904,-47.6899952623012,-26.6351360866446,157.730002523136,-383.135646756257,89.3758194741378,25.0347382334384,-205.618709138383,102.204814399851,93.6421777871655,86.5378293098214,93.0391927534323,104.538130882991,102.653255810967,93.5801213554384,93.5875503036305,90.0759692040323,88.5757467785104,90.9447354204898,89.064912067196,73.249398164559,87.2233869750025,84.4541777588587,68.6152556520169,75.5435976380093,78.8234642483182,83.1304244093439
-9.35020072597255,-21.2208347713483,-8.3709778781136,-25.9235351986694,-38.3671349190531,-8.07009915885947,-38.3006028921495,-23.9160480807276,-35.725057399572,-62.5192991012576,-92.6855786316997,-14.8129699004708,-60.2638603582013,-117.741025002178,-51.9507616987407,-246.458311057495,-123.033291188122,-254.582598054534,-447.921382671041,-324.673844961585,-517.240724203858,-287.256979164529,-477.613292668135,-589.760997233141,-325.826120856383,-455.660745786753,-195.588552050814,-337.622169070421,-495.313108625579,-7.37000674994225,-320.591908730752,-35.7627240361608,-334.220468858683,-58.0647258291885,-122.286651923213,-206.369644273752,18.5997910187358,-442.680172241549,-69.4996819274465,-111.827125511944,200.771851709194,-474.580299556522,72.3422368304195,-78.1521973494749,-277.910387609491,29.6256094580188,19.93334413576,21.4697931951735,24.0870814228488,36.804391955853,36.8326213887246,26.15111736282,42.8860822233879,27.8902402034961,31.1865888503367,26.2233414195067,33.7053768525377,14.7977017662257,40.9361641401453,33.2339057806942,8.70975868620954,20.0130440408633,29.3304198868598,28.7952472315997
-83.1453566915282,-93.5219021960367,-73.9999975411992,-90.0413042468919,-106.354544725777,-61.8296727897604,-102.081926542613,-105.068028435587,-90.9980174590755,-125.518530903777,-157.978427473911,-62.9766447780845,-113.748002822457,-184.537907851005,-100.857502243858,-311.912151769738,-127.992937526876,-285.204331172711,-532.253851820565,-382.934906855752,-602.185195799686,-346.812389624172,-523.212020805926,-688.242604473968,-438.869487671789,-490.276256915344,-269.757100347796,-486.536606044086,-569.03987489692,-107.126244877485,-394.908659822236,-119.918323795285,-467.990454233588,-190.731892108949,-215.400192524169,-207.061153620497,-100.94046610537,-465.768812586342,-122.279758976825,-208.020756943711,174.208576867863,-586.46407826878,31.0914603103459,-246.531118367188,-373.701948461054,-65.7201370213884,-79.9902814106064,-70.6527507493308,-72.4522929266979,-62.1761568692082,-57.6174384236359,-68.3017540792593,-43.1099391223529,-62.3635897648074,-57.0132811304061,-67.0705097626452,-49.3519326347002,-64.5576353107765,-38.0152379236142,-43.6357004403314,-71.1733724111221,-63.8823440122437,-46.4726818408836,-52.0665197160408
-122.354183740481,-130.422017334142,-113.839845086078,-123.557718870781,-139.765307545112,-92.3060361020643,-133.107135622537,-152.234113555691,-115.455736728318,-160.145802537526,-190.665616865552,-88.6025308751797,-133.096220085782,-215.427565633734,-134.890293535702,-330.204856975082,-96.7953019714023,-278.274526839438,-536.101330701051,-361.176186767996,-590.843681714882,-318.347642353525,-478.281762212889,-698.988643497773,-430.179596988882,-489.308622817187,-296.131439784181,-506.275864856617,-589.295743612806,-166.115383263308,-391.683983072583,-234.236630016842,-517.321148387674,-250.635083115545,-257.794317087083,-192.013514729776,-269.003526054494,-460.324237164456,-144.187866454281,-206.011205231455,80.7675802538065,-638.717036838037,8.01987704860216,-400.275113110735,-444.170506312409,-115.510450885234,-137.584906269042,-119.373980119276,-122.116204827554,-122.553246153682,-106.670028178408,-122.34324029197,-95.1129346618653,-110.470033734867,-113.233637211785,-121.129507424351,-89.5869914058964,-100.219385609181,-78.026905017729,-83.1334770432714,-106.851368294127,-108.130775505692,-82.8497028382208,-94.2938335565301
-56.620037364727,-68.1082598152837,-62.5732341799912,-65.7497653230751,-74.4971143303259,-43.5252377699769,-70.8255902229178,-87.2123795463769,-53.8854879981993,-95.2407406337658,-121.812261605102,-31.5798270576905,-64.3752645135777,-139.956471610882,-90.250576901534,-231.59902886371,-0.211728870003131,-198.805239166204,-393.821397798422,-229.29251987184,-433.634466896019,-188.521755703796,-297.649566229941,-554.824393259662,-223.36825843487,-392.592254183856,-192.479230624109,-326.578569943796,-459.261914457464,-94.5890804380041,-235.585780212491,-237.03260809233,-419.924677209517,-136.691255221373,-151.851860321866,-53.047664283495,-361.435320294364,-342.692371688193,-46.5696236676191,-31.4060398495353,10.0609616900118,-511.929841243305,83.8671591081929,-403.17288650034,-392.915892010576,-56.6279028398939,-74.9887378317859,-52.8445267117543,-60.0495729419913,-65.3428147807515,-40.9647333865161,-61.7745852892591,-39.6597028261579,-49.6162269027623,-58.0165108885173,-58.267109302396,-28.0721857335769,-33.342312068652,-16.9554463350095,-25.1049071781287,-43.757205531343,-47.0849604887701,-27.2680507150999,-34.6526847851554
64.0341973660807,52.6496596275258,44.0065457370524,46.4105700079733,48.0896430965758,50.2141461008088,43.9662914218592,55.7476594140961,53.1883675046676,32.3235190189855,15.9002258264041,73.7321055967059,58.9832105832182,4.34493842315672,20.8048735786445,-61.5000047172825,105.272941220373,-66.5735496839584,-172.324904592281,-56.746269791467,-206.27899426722,-24.2957401602252,-75.1319895255807,-312.410961347566,58.6216062568059,-219.19787153476,-12.9044842907146,-74.6960025448205,-220.616541622218,63.7385335711812,19.7410106361767,-91.8019835441121,-200.277461180799,69.4129996795485,29.1213053181688,205.735892920584,-294.050801432606,-114.505061178994,139.79542050235,232.439600084152,34.9447159376148,-212.09909032466,246.15360241909,-223.647032092412,-210.919026516005,72.3578971520732,74.6766457459169,83.4332955330934,72.192426284732,78.3077439062219,90.9225238361203,75.7742472978898,80.2026742917354,76.1571222622499,77.4635413337059,84.8008396671364,80.121736674447,88.2977534824362,85.4955918065071,79.5674376264132,71.647158850647,76.8301919562605,67.1402328576619,80.3076748569725
123.790814181912,127.160804735699,105.179529792163,111.48446364763,125.396979154135,96.184369435442,109.271655290454,153.268659998911,111.97937759988,111.728906990023,112.707619058262,133.842966497264,140.981414379641,102.353352743065,119.704233025255,60.0648687108428,132.355815364024,45.0460402266034,-5.6991081182308,51.8806995896338,-36.4518589237769,70.8994084440151,59.4702323169963,-96.5799513481171,219.92035824004,-74.0200700646623,105.226659903985,50.6559077097604,-13.8027198073269,160.134633169136,220.609232484034,65.5837240115338,19.4178797535089,184.88481440921,126.460134532309,418.330280535639,-143.311993317353,104.443930388725,266.960940925742,396.172943383984,96.8157992146523,72.0169496146492,341.58349219788,-19.808981689979,-41.0449461905998,158.138137065793,179.318922357338,167.818646625947,162.999916948961,182.730235328342,166.424562126657,167.092274533402,148.924721414559,154.605052170831,169.886012075084,180.933578163144,132.417159687692,161.73328225101,125.522226836578,130.951291089403,140.368381392725,157.994877538817,110.027213950937,148.321883658805
127.030537341059,147.52634160523,119.249193153637,125.979964083107,152.382255178026,102.156408374546,126.184333449171,178.607766958219,133.092252679972,137.088140735768,150.173445501546,158.225647964898,176.440879326827,136.953287988075,198.339296608278,120.370256070202,114.518296660705,125.96560529738,87.2345644975716,106.41370991283,61.8694900377919,97.2589256184295,102.114076107944,68.0947175130466,215.827509367132,0.853267003656202,133.039647815168,31.3331507997741,111.021730486351,136.243772409007,295.072804123077,128.424820098892,158.98644699871,175.975327124992,126.340542396274,453.575498817879,-29.5975751986193,242.950910311943,272.42110086708,393.162612776797,103.767720086515,192.914834812955,281.421848765763,65.4817463875309,14.1688496747391,175.58258305812,197.523119626268,183.388147805214,189.256710287047,207.837798113779,170.833535499754,186.845827954454,155.00717328111,169.967195387473,188.375130725096,201.894778202675,138.679385456465,182.954177842366,123.403970493088,139.493795551171,160.096711880339,183.374418997574,115.441304308326,168.065581884762
167.217565350763,189.410944220163,162.761848982373,171.292227790331,203.292381710614,149.680848944123,178.974986165862,216.566917731464,197.094560405747,192.857380752912,203.256168376104,231.638123611093,242.095823849336,186.382424008612,309.819948033814,206.577106241612,156.920647252679,231.478104297386,191.025801767105,191.236295841653,165.950248889881,143.244009850738,133.704666037913,239.411210442329,149.494402891069,60.3303900441503,134.570081753831,22.4567980802606,208.745725709097,71.5295564856755,323.652357471815,141.436522149058,246.374055846063,161.840250233826,146.922722587966,370.996988533105,37.8451722011112,346.673539275237,244.597529670779,347.546513636131,74.6500338919077,211.616818727927,179.020160582356,86.8681692417489,23.9944378768176,202.715754788004,218.170410422115,212.923581038015,223.115703581275,232.768186320259,191.318265369594,220.311670863485,180.367847705762,199.093610359053,213.265894825948,232.010255128462,176.881989145333,223.774473561699,164.406056286221,182.023121245573,202.139602215731,219.997843587759,154.81324206311,211.449394250188
249.543432531352,262.816491112024,240.423763919799,252.48699329789,281.667793876201,236.798855940326,269.83369759322,294.758626550183,294.776339467875,285.233081273594,284.512763063595,342.889607750927,341.588590764742,269.121420180596,435.288967145985,332.065999425402,259.391143500243,359.31911660635,328.745777183602,312.237250460007,299.127396215885,235.781882583454,187.983655397463,422.028337591345,128.514378216594,146.387585624842,134.3237487574,114.361529080839,306.933498883293,67.7083064016291,394.652270443097,165.806615134989,331.226972194847,216.94451846975,237.118988373488,304.302204530474,111.469926338602,437.847516136851,269.051830604795,373.635554879466,83.6843695663004,241.510577079971,172.933996229822,153.087897903716,68.4167121806374,263.478836009636,281.918663848928,272.054247453045,285.369666842739,293.210479149224,248.192561450556,289.657617489731,239.200169999721,258.435540997624,272.131843706479,295.698257647713,241.541774682615,288.827854969479,236.272457742119,251.18870554154,268.779504950994,278.937814127738,221.29004744688,278.752776323946
293.563130659632,305.000674696642,285.222865620455,298.156051824805,322.16561487331,287.012875558453,321.290788851723,346.566469795353,345.190771396323,340.167405494018,329.136505419998,398.233437048799,398.614578746761,326.832357214728,495.523201973941,417.638178221453,330.195000938181,447.981132942055,441.569017972557,408.038507742648,419.880562337699,326.194621444351,252.019664100357,573.329179647154,188.791607104274,234.763584183678,130.069523143733,239.813003214326,366.787065097505,185.30771590904,465.50559671646,168.764036019867,413.821072861467,305.032700776643,340.979823503219,276.003718540168,187.523952053093,457.623300989409,327.950718600821,432.887298130188,129.289860383563,270.3923342737,233.677212525104,235.985778764695,104.908093445171,293.590294636182,321.86010908307,295.206825630009,315.727334228094,329.09232371201,278.557953706429,323.418924956683,269.266418801368,284.669388839308,303.859584065744,327.248326063939,267.670968612221,316.252565103418,265.088104095582,278.721379490253,297.552966626859,306.427488506632,249.868773568733,304.625168748901
277.027122261184,297.729026284077,277.052794299214,292.309253964473,312.595328846601,280.25796165378,315.108340366316,339.370296378199,332.522700204316,337.800074987883,321.775818804272,379.398749996534,389.367224707754,337.102343847446,480.043678316805,435.676441231043,340.197748604311,489.049570036299,512.354250702845,462.795015034449,522.015285681646,385.372839820266,333.213437757209,709.741767129273,299.088770260251,304.335654431829,141.542124361582,319.414519612688,362.558662017208,399.176362220644,433.506919965859,96.5597785837287,479.563833500093,359.037484993933,414.837751207781,231.614036644271,235.259773076508,403.557698877172,364.045978923729,447.462916647345,162.607636185811,256.076246496401,261.372076696821,259.354273585634,98.4630866118077,270.204732056035,304.070726217126,268.30609619532,291.778257170797,310.777107775802,263.843591745198,298.571945332954,254.433797080276,259.598232349327,282.891152936256,304.094456479902,250.338350039119,294.312359988049,246.788576698209,259.639149383493,278.504661437484,288.265942143598,233.000051793371,281.113137714692
257.68649357012,285.448110500182,262.952121421391,283.47290963419,301.750020945353,267.257388844446,303.390605274429,317.979642409418,311.913765136166,326.935171682005,314.860961847858,352.733986331583,367.256606857551,338.218276737842,455.787873859704,450.204404416461,339.856999745746,531.41479655664,584.991348758429,507.695114646826,643.5097835377,422.286060393126,446.394549084006,886.279263070697,409.847633903446,384.258037905208,194.117520487116,343.664218362899,322.881270068613,556.962184950267,272.478126834866,-52.6111882657928,543.921799770927,346.604461717833,455.102593698246,171.402414149573,268.668923273315,372.06815888997,355.942882953547,424.001777803429,179.718176992157,246.929951181989,252.250582452822,247.818854604899,111.794028847285,249.173234333017,280.270918700992,247.348020690357,268.044913931826,286.353962214526,251.814615594213,273.092827808163,240.967735169298,238.32449685211,257.803855303023,280.166200157232,238.331924586252,275.478252366734,235.039819357763,249.41484384168,262.239630751174,270.082838511399,223.234091714076,264.836908560601
266.53996726415,288.529521158691,267.824568162491,291.437608859475,308.600601489147,272.478888936648,308.505296507873,316.132890606484,311.04541170827,331.641422873385,331.699429246156,349.681211279846,367.556908821924,353.655787063986,461.980164431229,505.646923498909,357.066426222017,593.991891254882,671.80142912664,560.746483506535,784.736399357091,464.23676805622,564.915778977083,1074.75970689282,496.310545285591,505.26425360718,293.096079327432,305.8066925218,284.06774968692,512.41327591813,42.5496840017846,-210.726706784957,624.773661768879,287.395086620658,453.348986060006,137.071148048875,324.295294561205,412.011510946317,318.739670820477,394.405233091752,204.557573748872,294.502760665104,254.430490929462,264.544916155697,186.864444343153,261.311506820005,286.237695032944,255.032379060319,277.540367927168,287.449834107325,263.113686460387,277.678453248396,249.027130515801,248.703373439334,261.087645469153,287.177829278117,246.502260246405,282.47400656796,244.524173521868,263.334315258194,268.109839186802,276.523907657039,238.070693776459,275.767504706108
280.7356062807,290.522324326124,273.050622694185,299.726585060078,315.903314441894,276.559994582908,313.274149515676,322.424858065011,315.789466630131,339.598998923963,353.80752218659,351.294286867402,380.033699440123,377.84309543645,484.786176497287,576.616464846421,384.330331527716,662.522621569814,753.482391540319,634.537110169859,912.671735207281,548.490635626563,651.960024490343,1191.62046748868,557.205057178744,673.291152501951,394.293528724317,225.230574364903,266.861611931834,324.547922564523,-148.411669330464,-229.360387567715,715.489128919326,228.143695090271,421.962417191243,159.131716501184,427.816232319124,479.598512724761,290.96274468154,366.859209235049,256.237241084759,376.96362640889,282.321779464906,314.883995827452,291.549055556515,279.425905438279,303.76540493173,267.492038958941,295.23645662977,297.532983799032,273.968340016128,291.430753860072,258.728460629907,263.475933434066,276.327405857598,303.890068658641,253.849807659949,291.785462106345,251.039782781534,270.51928371305,275.291098254342,289.716567905732,249.654245595781,287.409965596931
289.393996868198,296.296311802642,277.720811757843,310.609996548487,326.582169745104,280.694231170169,319.900277303286,332.92411678386,326.864397980467,355.662126435304,378.927951301933,355.965946117538,400.008195867012,415.125449707815,514.840513143563,636.362133096839,428.73875423979,734.503156983739,837.740249756218,746.455644853105,1028.87152816484,675.732858170063,725.894562107983,1229.75611373067,603.238729355056,866.256571834139,444.056021422091,197.844176480629,294.036011537811,200.72498767943,-196.428457976736,-9.80350644371555,801.064930663771,192.816188662469,413.453522358586,265.327725454123,570.512899419447,541.15716803994,307.987241104439,367.30159361898,348.143048096183,458.054678694779,335.987606762874,373.94137166285,392.415831056457,289.478880491713,318.734586838635,280.664174964285,307.875230295764,310.713165497595,278.721942709558,305.577369902037,266.157473252623,269.340924918664,289.812185188826,316.636493218774,260.328685864613,299.888186496657,253.013099794054,269.600355628882,283.848580072521,301.353148892616,252.196016908745,295.318196164922
303.305930710345,320.317300397831,295.829052270447,333.620665182386,351.283393721799,302.468610976054,342.06396379821,357.89829133763,355.526971291822,389.628490522693,412.893331392379,376.865542688846,430.96369543336,463.861661370904,556.845785675585,685.600044562919,490.54653175727,803.581428531553,925.041088231857,871.573029265962,1147.80841435799,782.988825777848,829.148903136533,1243.50559736528,643.351298219345,1004.61030303237,463.716692749239,271.551885699844,385.500121229957,231.388028555553,-101.947383558591,355.511164232052,860.252644173534,170.567187758375,449.222405190824,445.643482952211,691.256350374067,600.345084176715,357.770703528692,409.630211861447,453.376724152294,525.342354399454,404.511817378532,419.317429400756,472.356598445618,303.883215995225,335.812717339833,302.42847064015,326.174108317445,333.156469891647,289.467935220375,323.529331866015,282.570724979526,278.231926859683,303.966701988806,330.903483539998,276.050444595959,318.680376843358,262.339771045488,281.246197550689,303.974715015923,316.388289352575,260.463147137482,311.264129519718
310.651425777901,335.601855006315,306.688309839107,344.467231470399,364.403837904854,321.797486150935,360.374485435607,375.452802404404,377.459686372736,412.728664092098,431.898144008426,395.549539673611,448.964626887397,489.812811083286,590.390762220372,706.724013748795,532.396380492547,834.827666309745,966.367005555911,932.740810830598,1238.46835328745,792.02912139275,951.178777953606,1254.58012133889,646.797241850818,1006.00500674738,486.08507482188,370.699482889366,541.899787313803,296.944490344745,42.0478001426891,704.925165339321,861.924508652688,142.6044891002,488.834852026563,627.588437621141,734.950303656985,647.996336777669,396.310978355648,452.123162452797,513.407641937491,572.900429175473,455.098190582647,426.468687121864,519.938824196284,309.939356941853,341.564993833177,309.625127846192,332.741639787962,339.981750715177,289.319775623857,325.453461988947,290.800529979624,278.267427248863,306.123521074318,331.127292747075,276.803518637506,323.504109524788,260.96364893244,286.116025931217,309.975659442596,314.446738254687,260.654916833419,312.416128655447
278.727875326354,298.640348978023,273.717242728349,308.871011146956,326.138641604259,298.211262237894,335.141221740844,343.646889107385,350.798936483297,384.008270801727,400.439209047065,373.540335781161,417.779978872328,456.556200416028,575.785718413216,668.828108023717,526.791796890479,800.21141025625,922.186264285434,879.294241463228,1259.08344416979,682.159802708286,1058.2277367862,1256.4745346627,564.143993775402,897.848482004798,459.215040641274,432.355290718018,728.827145954885,288.936032498614,192.66606881835,949.9001921435,782.343020171865,112.41601419366,506.888085800846,741.812810305321,703.617647559854,652.613790031272,412.397522206236,462.915726750852,505.653446975333,597.358279687507,472.454918502084,390.718267481118,541.776702740199,273.359273312361,304.730494479856,269.881100687391,290.473157951451,295.221861414976,244.536658013175,282.782364630423,252.178888998878,236.945793307824,266.640721370316,286.287812091443,229.483958553755,275.925831435616,219.224780544075,244.574258972195,264.316351135392,262.583713015175,221.056855104586,262.002945522718
203.857021999724,214.207839621131,200.501438010534,232.859389206668,241.463783679714,233.176978164993,263.405369666483,266.235603924717,279.652072563463,307.471125098498,319.234442322319,307.400551808236,339.937356894115,370.837535577343,505.843336140559,586.299747188075,493.687978291502,724.902742645124,826.353601604415,753.90076715548,1223.08683561943,514.464584877901,1168.80956005073,1248.42047157814,431.535380385422,808.291188814369,355.171111506268,473.332126428328,880.657859852787,283.456649287527,373.769770643771,1029.67274500432,624.913106329593,115.315481822583,529.812690019507,760.679801417329,616.909162664256,592.618808309268,434.526148541597,462.956168727576,450.986322375338,598.303291581162,476.748712510114,345.227986400323,539.649787367349,196.287303569254,225.822570280719,190.5585075456,202.605036039969,206.974035019125,158.995775956202,197.568949251169,165.83635878276,153.486277926099,182.337062039435,198.685036832412,147.156856791857,184.518799136644,142.618631821624,161.335809764024,172.858713280638,167.951511957608,144.867025565984,170.127718106537
119.678846436772,126.107371495428,125.306935167776,151.545260958226,154.002470853466,165.736516893272,184.618305189425,185.713135658901,206.22166777094,220.723767491646,225.176633295372,229.974292781142,252.859946145544,273.817146266305,404.803035008659,503.217912926868,452.082397895198,652.6403064685,740.328027101653,642.522827152609,1163.32180375541,367.238213766289,1286.22828219013,1213.05795788834,358.29616952125,815.850821476633,261.841688621455,475.39302771848,948.997832048364,364.787359827086,551.955194873987,927.307168431365,427.430661094459,163.757852244744,553.38601605668,680.791138305832,484.909003743555,482.781693160946,461.34195790895,464.338281758671,367.377857068204,567.159345454854,477.787926372277,316.711481289733,493.574342535994,117.825632341792,141.738107372538,107.621615038737,110.884602051266,113.568760644739,72.3993058734475,101.222915719798,76.5038047892416,63.2224466131217,89.2631315915804,104.612895399577,68.8876239178352,92.2736403984769,62.232463966459,75.9123799842231,76.4334306945431,71.7335660948283,68.0752417901201,80.1268247389195
39.7350391235554,45.3620772548998,59.7386719504753,73.6331428618352,72.6697487146202,107.264451776694,112.965366594885,106.780483271721,137.643773915267,135.128764318268,131.624706474117,152.940004236375,167.704157480663,182.000709062456,283.323066791587,417.795542481871,382.208395944329,570.854548718518,656.745634825355,570.744018608848,1049.17261176283,262.567425427395,1291.98215487061,1099.61423880309,367.499679144796,834.978535177686,251.894666658912,363.442785101945,921.134708955774,436.058976796383,618.976944117682,731.641987563826,231.006995066473,201.53474259283,501.295947672353,522.422612431679,318.665213254037,351.521312100434,429.495220133946,426.781967435761,247.750034482775,485.833269516582,433.957580859509,271.510514753242,390.245569190302,39.4668211793211,52.1474977090874,21.5714457510692,20.4145419939858,14.8840186249275,-9.54918871931327,0.698210646379484,-2.02674190504339,-23.7344857872471,-1.67341368485724,8.09930394873629,-8.20710404978417,3.10591531487245,-17.2326655089794,-6.15664493330176,-13.7614268031136,-20.4889827541042,-4.74730831108366,-5.54888592729366
-60.7624692861619,-61.9871171101789,-27.1509365459156,-27.8992636623634,-40.5440985882905,24.9491472703899,14.6097752372936,-8.33199968812323,40.8396541250073,27.1888503695221,10.2344774874132,53.8554762058432,57.8812322002061,68.0650946685273,144.296190433756,286.078440216002,267.030757163638,430.915918001329,506.561941750889,486.79627368479,820.653619105045,181.880596022743,1068.97821200462,866.967582950142,363.20761728074,724.358591469354,284.153992397772,153.965477818944,790.720705499945,366.410112290918,521.066624771234,533.987199487381,42.3509001437427,178.047092721418,332.201134096784,321.622206010972,129.992684272738,203.818191373048,295.428862515729,301.685971873308,82.8203416819917,353.855611049189,301.704979281669,163.396952004914,242.478990517705,-85.2617265456456,-88.9822944224988,-106.897766018443,-112.93681495526,-124.30766475669,-128.354742761924,-134.724302916474,-110.964217656246,-141.653595817483,-128.709062121564,-130.533095393729,-123.555767235459,-124.969264595893,-122.956207987573,-120.899524618304,-130.802631911765,-146.44401852132,-109.548189678809,-127.768185297536
-183.121907613986,-199.675127807737,-145.379495667201,-158.128409831405,-186.223493167661,-92.4580605439099,-117.462548131534,-155.210493913833,-85.0861981209526,-104.320264990056,-138.295538404866,-68.193390584677,-75.9652360824566,-75.7445988987131,11.2436873693036,106.998619350684,130.820949993769,237.962441228028,278.725743942277,346.301521836671,509.670867218795,111.391819173235,707.540847834352,554.111600926908,287.755274823127,500.908971379393,279.361783532567,-11.5344918270105,593.250809053376,195.383175387778,342.251969282943,355.020943908475,-125.991403986401,126.245978128933,129.663256076995,127.812032364504,-39.5091394260527,60.2875950378974,124.410617434791,114.667406874895,-86.6468179596991,221.094314943539,130.300055058978,36.8695998975178,99.9811495224264,-249.91789404645,-265.073141297196,-269.262463206691,-282.791372885442,-286.556526417841,-283.609463798066,-295.849475379814,-257.900022616829,-292.517487877002,-290.008026244051,-299.662750304557,-271.197924727824,-287.279313340032,-256.131730607988,-266.6111370718,-278.640477461414,-300.379818714867,-246.235649770585,-281.189630278195
-282.628496336081,-309.651479914619,-249.90335168617,-268.837447931336,-298.077659367599,-196.878311348898,-227.653884560268,-264.342259781566,-189.373441690645,-213.475640534331,-252.875761216401,-169.52578806577,-183.964038650972,-196.401511827769,-87.1683330058347,-52.7906645376819,16.3868347848924,58.5189082838334,61.0978865285972,179.217350862134,236.791006602975,43.1974342272145,412.624146477914,270.997615438659,200.037407117057,318.729480609126,212.254562268536,-45.0501070976125,430.37628779093,62.6799156748629,223.081240879501,224.138659386565,-219.679446809784,102.793078540942,14.6359747732645,7.66907990687709,-118.819911639697,-13.9574048916172,27.0725293533607,-32.0941110291288,-182.36387667801,154.234121470612,22.8891346826272,-15.1843300127449,32.0556433800923,-369.66793561157,-380.158143946077,-386.166214257609,-400.466649286267,-392.213080464953,-404.699333531261,-408.45805426518,-378.822451177529,-409.860165222147,-408.335832101126,-412.740663439147,-385.260466747809,-403.98054544643,-368.902292489211,-377.579684110672,-395.903198122491,-410.642143084285,-356.245841836292,-392.515184887959
-334.274674314441,-357.003307172035,-304.960095605079,-322.099902562054,-340.684004029031,-249.216716385588,-279.214904080248,-301.939019636749,-241.032192305754,-268.83436590235,-300.046108692448,-223.120147666118,-242.077884046366,-253.022530902358,-152.102593271012,-147.325631648932,-64.1589040879629,-66.0134640215287,-80.7059261194009,36.0903992440563,61.6217246173555,-23.4583527745063,241.318672036008,74.061167199647,154.918042762177,235.855877969159,122.420243745109,-13.6157041664839,349.084728161162,13.5121832774434,205.700926015847,165.074532617887,-236.64638901594,98.6873064763899,-3.3451570997479,-28.6678821914859,-113.385964938009,-14.3252014306599,12.231745973795,-95.3220731459991,-198.722777459746,141.269534024029,-18.6154520090384,-6.81419248877229,35.3009397056752,-409.394795157493,-404.218016684376,-424.272479919507,-428.054541761008,-418.946354893932,-454.556226273638,-442.481904516392,-435.154993206031,-455.368653865558,-445.789210260321,-438.542662617514,-434.810394280894,-437.997659095073,-430.930953434014,-421.848006682146,-443.529098082686,-447.521803684012,-407.578591952726,-431.346510870638
-364.270554511251,-381.780504248622,-333.916615088136,-345.265110113118,-361.698311296521,-274.313594227846,-304.626123177382,-319.416338699673,-270.930685886622,-297.359284123088,-324.109209744839,-255.654143639993,-284.099262948265,-278.986421814846,-209.460540039904,-207.419884532755,-135.77688972193,-155.969214848784,-177.252673630649,-84.9190922136814,-65.4083943530922,-76.018195848446,113.357875220715,-83.4822503420368,118.307399415921,166.001074853781,62.1493170212834,-3.49009989979282,281.944198092674,-16.6063318980303,214.902257002582,116.842294806833,-271.41269404984,74.0354484342732,-12.2573520388242,-62.94904361486,-128.128713008389,-43.5523103479931,-5.06087927866576,-152.099653504684,-221.882642854471,89.5989609607171,-92.3648704762231,-44.354582230689,10.9647029682391,-434.101395744525,-421.423671143516,-447.669421713502,-443.724048849697,-441.771172708298,-479.064622603461,-462.969791068312,-466.148503606765,-477.066567531703,-463.187464118593,-452.823694220656,-462.532105771282,-453.774535520858,-469.097751733294,-449.479730410568,-465.76352452722,-468.584504704769,-436.132592398458,-455.90902986809
-385.825723809875,-407.116343519522,-355.462511759764,-363.712461358698,-388.087379906981,-293.703721762798,-325.915453069727,-344.324994382806,-298.396086898113,-318.860185917561,-349.069072195461,-277.738553847165,-316.008053235822,-302.453708095571,-249.505381151133,-256.411262825879,-193.497494037211,-219.968303064463,-255.081907785374,-177.158725554913,-178.530838420047,-101.83552790857,10.6644570045309,-230.898223567628,71.2816429744682,67.6436124278051,57.7853299409306,18.0242182884699,191.217750785685,-51.7944419100734,202.070421032255,17.0463899689351,-357.801669289214,50.9727809980375,-43.9867884756394,-136.114873202607,-205.6948576384,-145.583497006914,-49.1386167500912,-243.160151452823,-281.9779504688,-28.6054329925087,-208.609659203274,-139.852676261432,-80.8710079850955,-478.377328043433,-475.565842631495,-491.444012011365,-494.380981335093,-494.164658748286,-509.415106878048,-506.410825181541,-496.243395421815,-507.866587647064,-500.58143295672,-496.543695227199,-491.733065327408,-491.957823850976,-496.449605961291,-484.560424836681,-495.225138550595,-504.034250555307,-462.533916982101,-491.645352266196
-358.464991345909,-379.029091831936,-327.986267777142,-336.209473784558,-363.31216457145,-269.399012695267,-301.364664346222,-317.68962882736,-274.584543987938,-291.781150799423,-320.663412028642,-242.701270058695,-281.437713633243,-279.404925242504,-212.843021777476,-247.917744287234,-176.670911558635,-214.417639737157,-272.494384504347,-171.049392411473,-237.500262996881,-73.7705012557556,-27.1180939622202,-319.313108024782,75.5040034633818,5.83721151504645,112.293849291439,123.599407149474,135.283546692385,-35.1326519119477,191.875891999737,-107.213382865438,-381.55555857141,83.3620503096437,-48.1097545987099,-177.089155525938,-250.642924212225,-211.748231438359,-62.0445696438303,-290.44683819454,-295.992885166525,-112.236996242777,-256.767915895381,-179.564790784867,-138.709432332779,-483.420519862614,-491.20370839798,-492.399641915321,-506.725779157912,-500.672487233779,-499.896050805881,-507.346184509106,-479.189861128601,-497.059119396366,-497.852171271852,-498.887416180767,-473.645272395026,-490.598212152471,-468.829308071077,-466.245751926042,-478.653218129768,-492.85381891919,-439.739867205062,-471.914798233934
-254.418955879159,-262.463222679412,-221.016912275123,-228.726939853561,-250.721613873283,-173.200127124289,-201.981421290449,-203.035992290538,-166.504812092319,-185.509044608711,-207.833800551554,-131.167226223785,-159.207675071136,-176.654199851454,-85.6792556543565,-154.23348080231,-67.7615421267954,-124.802527062307,-210.493120729687,-48.9900354847171,-219.138264946557,32.52486947242,-27.4639986950454,-321.493979558419,145.878575512089,13.7392046736561,190.738607753613,270.007219959638,125.808663299529,39.5627940268442,167.580866887173,-217.045483618259,-241.20591789544,132.366139434569,-31.4556018853721,-150.747579281824,-174.929744322735,-151.22661019894,-53.7102891392888,-263.338577757163,-216.317831434079,-81.6775800605448,-217.692480955629,-112.035497315485,-81.9479341922226,-411.982391192561,-415.188588099916,-407.298082788911,-424.877616975303,-414.799526872535,-410.905494533,-417.317186494159,-380.913899934649,-402.42201521485,-402.450522438361,-406.70723433605,-369.894164068249,-397.504611539694,-359.648216362859,-356.892985976169,-372.777430182449,-388.765995508427,-332.18438029044,-358.007439332697
-112.915663151152,-107.967627022944,-79.4379869853694,-83.7033318359591,-99.5268644589549,-45.632288613113,-67.1438730474932,-56.6486071106648,-26.1251780947782,-44.482544193348,-63.9599331006691,0.0491716915439151,-13.5644421457775,-40.0049299890872,52.5694676851194,-31.3303880784601,52.3597742627924,-14.8990463448602,-123.187932185491,79.5690862743419,-169.188238938295,151.680603439914,-49.8006941436514,-278.317854973185,179.215445797587,37.8501113848607,216.273706029705,319.106134980163,81.7849214165257,68.3707328093124,83.8508215954529,-289.94569568507,12.2270795192077,82.9818211310661,-76.8361590264489,-133.611704643718,-7.26343584507368,-23.9078052304137,-123.648639144709,-252.966118304768,-107.431790733737,8.4691170069309,-218.735988202501,-23.5875704648063,23.9959335895695,-309.478410859544,-304.978699842505,-285.35402413396,-300.311521073505,-295.995665464255,-275.709766732993,-286.560525721817,-236.468541418997,-257.924593356178,-258.802214526733,-271.202388820187,-216.819354761544,-255.60163693659,-208.328848224434,-206.170755634725,-222.804841333885,-237.343193956028,-178.014281158376,-206.033636372502
16.6330370205992,27.2873513629601,40.5097962511461,42.3473745265244,34.7354520930329,59.0183509335935,52.3722222690195,59.569540645345,80.6774022829936,73.1989134771402,56.6288292292965,93.8906452351477,89.9779136908271,73.5263502032996,127.579720580293,56.2269567196878,103.481380274648,51.4872558423832,-58.8005306194043,112.705254880684,-133.199627215803,161.423300305253,-90.4054481558189,-223.710234064959,99.9522112650763,33.3464765480065,135.007919996509,213.203459556263,-12.1115021311532,-35.9088526878601,0.776746906390215,-244.594023805797,249.61344209394,-93.4853014011992,-198.802523950452,-162.192315393775,180.175576545438,75.3057171106609,-295.184871998344,-304.202182293864,-26.0829619411764,72.5953761872829,-316.886077309406,8.98695215172598,85.6403690637959,-208.392087484677,-212.747101984351,-167.793219379052,-184.56260891003,-194.060499765175,-135.639695559552,-167.236683885099,-84.7079688091436,-106.803683560574,-125.046408133874,-147.793570653599,-65.3982282681588,-119.497103533204,-56.3691885919564,-63.2803804321674,-80.937088003096,-96.4538406670999,-27.8068250930495,-68.0768481934252
132.075479730368,147.021567216237,137.421369503627,146.708680369207,151.969202182169,134.009314654338,148.8834417769,152.124358419981,148.944962589028,163.540609518019,159.511918974043,147.824752894496,155.197301156069,164.785935326942,153.366004979875,108.722050218296,93.3245278923135,78.2762228360516,-5.96207157720278,79.1993714827219,-101.883606841707,60.0451841540405,-103.086874640573,-153.765191356999,-15.9115458141965,20.2737152671548,-14.1701593894728,62.8611850433063,-54.4601549056431,-213.21886600142,25.5573315493675,-31.8122518659913,385.841277232941,-292.212838111471,-302.732898612624,-170.927448589172,349.957542455609,138.737020325734,-458.095033890625,-347.895609530809,49.6216125716786,99.5393578794032,-420.916520054287,4.96713120134101,103.908914202907,-64.3614655967763,-104.066833302502,-18.5527095463602,-53.0362602406628,-75.2516188168577,27.0367228959977,-34.083923129863,87.8107994550343,57.5905774726089,15.2564658725448,-14.8115330634185,91.5525680480963,25.6315349461702,104.748030001443,86.6472014192332,68.8860036202491,43.18430352507,119.90103501579,75.7131002203643
241.197996543713,266.723428824607,224.376100465839,245.708907353175,265.103418674391,193.631015875596,228.959832582761,244.201414015977,201.874069224182,242.543824298833,259.548938145895,177.3971515767,210.566981695305,252.575000602954,175.325641699071,155.402071118811,71.3345983130983,98.9437134376387,56.7894824630843,60.2999550213095,-58.5618824412942,-19.1026838173604,-74.6558041714877,-79.3135313158336,-53.7487571569999,31.3835518938449,-131.536542392002,15.6328025028294,3.30565127519113,-314.63739538246,139.293539607091,221.621847006744,395.721663685688,-409.852656736111,-310.201467035534,-129.762454455587,468.566811355649,186.811454605298,-513.354790910111,-346.606451728287,139.985132069088,102.385294121248,-456.808885895072,-5.89031012218114,116.398179452342,160.573542251586,56.6674145576843,191.601576535276,122.754510968606,93.0930389663685,236.444854930834,144.159618101329,293.937984216288,249.0421226462,193.729789122007,156.400030848156,278.150821554379,205.641768044395,283.542222546636,262.44681639204,249.147344915731,207.32384666164,278.697753783433,245.991961681628
318.29014497865,354.896408253005,280.015124165604,318.75943833766,347.863902107362,226.618936994868,274.639031024438,307.827217547108,232.429335222721,290.950345260172,327.713009296044,181.095874283406,243.916795995483,311.273316137675,185.827747467682,184.297651773114,52.7223812552614,112.359628368152,102.145947797145,55.933281450469,-35.5247655707521,-18.1599273872821,-51.8477219780313,-46.1465580424439,-37.5995358032518,45.7678298532496,-166.937228831345,62.8260685051449,57.2508234681696,-288.458846555769,210.457127261147,330.32900826633,285.702147464061,-448.853068148636,-270.701819205561,-94.4507153677446,473.113833807324,186.565559691911,-495.776546278903,-361.464786393133,200.278674964442,55.713426332294,-460.597491708504,-52.9488127661859,108.174773694648,393.928383177491,217.345263209621,394.510492491918,294.366226032146,256.251215945356,437.760090724191,314.112658499196,478.14910310071,423.492187733283,363.763105163075,316.902434091953,448.785360115593,371.757340452327,431.657001106244,418.948074352952,409.208154682731,357.164940175158,411.944653242399,392.12471937408
332.10050067531,366.610615025346,277.475902850827,327.921573356438,356.460984368208,215.447937444867,266.07883480165,297.981269709173,218.160012915704,276.912846008209,322.046245793387,154.449265625436,224.352103309594,297.948087362966,145.056504796738,153.778604515935,25.1484455600483,84.3321846001888,80.6338960363278,3.48404267871963,-77.3277961737091,-23.1464849879876,-95.0757478810682,-89.5398320627306,-77.6075527014536,-3.15259187124975,-147.830139337341,65.7032366492901,-0.745953938707476,-234.292341955944,166.199874379952,249.884180515195,103.55011098065,-450.209621602521,-294.85786026959,-99.5265174706489,326.573875297827,103.860170253277,-494.146181431627,-416.880961607182,175.700931397407,-53.2035401639945,-473.271922618773,-162.941142272288,43.2039973901528,499.00747658929,283.50981171814,475.704519150871,367.958102396236,319.978157570223,527.43821755468,379.852456944134,553.166045286499,498.172062266264,434.999352205974,381.203536978621,513.272359340359,434.004338462605,483.150241478701,479.202282699186,465.776392668418,415.14077363245,458.006325570615,439.17771558703
287.218303686567,308.448594393682,227.645716523977,273.644270697875,290.637083149109,173.023482722728,215.830599837693,227.014604291911,166.110338988594,210.801110982888,250.348205860431,108.423991621869,160.476588507703,222.343199940483,51.6384996423464,67.9657868944281,-12.1904174230039,1.33277294906706,-2.98892741483801,-104.646708473264,-172.042950235447,-92.7057048695102,-206.878764825893,-189.237457406266,-178.224979764099,-140.452869496696,-111.389323651851,-28.4069410911282,-130.043359995838,-253.440578501222,64.5240446631011,68.1616833116104,-63.2984530669976,-399.770636788971,-378.364452031957,-115.268396882272,81.6747989982931,-17.6635854353549,-502.102705482534,-420.389929464161,75.9579197787874,-158.741017195713,-451.74574058877,-282.721523299506,-59.5560504142136,434.132483470002,235.11202902406,410.444828961403,315.631586051132,270.172722608029,475.094122710867,323.499814470072,498.715711160945,446.205748811161,386.870696254024,334.83712480491,451.351287070317,373.014321940688,431.765809684197,425.989825655007,406.784791096375,364.722740164262,407.5476604949,381.945978784709
218.418089448501,230.452862708619,169.125467532868,197.038200180024,201.368282284431,127.781702536253,155.946923421204,152.538533241031,108.054342618996,137.578250362336,165.515662128553,62.3719071894648,94.0421983465962,140.500688371189,-49.4879761004564,-16.8011934055773,-55.2109097051368,-105.512871499839,-88.0259275476047,-211.862198671868,-262.789924873011,-184.056738643814,-328.600787395374,-283.741495714924,-249.725549121741,-296.320877844733,-102.931380233852,-128.36780397683,-230.999821942221,-327.145024301339,-28.1523700284159,-119.851066494408,-163.567677906165,-290.512878533307,-411.900208287218,-134.611318343933,-165.330464995564,-110.482136637584,-464.455499877849,-322.985345706314,-66.542137734692,-189.727289156542,-379.628883885374,-348.501087991626,-154.892344661773,295.952576162634,143.159728427641,289.086533150615,208.730251167478,181.051137274006,357.280581319666,220.864997070436,384.063016046196,334.705175308453,285.993973897766,243.605653991416,339.952847476971,266.0643268062,338.346422175477,326.615628973736,304.259818909648,272.014937080757,320.071463732727,288.753677240255
145.956590473179,156.55220412605,115.386936624192,124.885161589338,125.637614054388,83.5440060604506,96.3548274551239,96.8212950625184,57.1450178840899,75.1678793371011,93.4930624496694,18.0754337586494,39.2589502233604,74.2514320009055,-124.944924153143,-77.3453523561864,-116.697758503398,-200.701806287197,-145.050582298015,-295.564472342739,-321.630103398869,-266.173778234732,-417.323503324455,-339.786092096098,-285.264175207955,-385.581693843514,-218.070071876625,-163.64646744265,-292.463633398084,-374.321746095197,-133.183159024899,-266.452034816888,-224.035739876412,-201.171186987206,-371.924876471426,-188.449062230286,-353.667233921752,-168.921651602263,-409.878227946008,-220.950462940122,-237.704055836504,-169.905853902843,-335.610842791058,-373.849390186306,-234.192728931205,184.620705851381,70.4100582708826,193.90140211451,122.294981355305,107.556939135102,250.158720204944,136.988003595031,278.907853856071,237.255828402302,192.195803049867,160.637920625365,248.104173223975,183.820831885473,255.933742928214,243.389184237865,217.945131822024,192.7502312155,245.829460116186,211.663840789099
65.9169724498934,76.3778276529816,47.8280691229341,53.6783706697554,57.796057974599,25.2628160923384,27.0571983922936,41.5144546099949,3.18137383012452,7.38408843978789,21.9626259389939,-37.9352660361141,-22.6405273572543,1.76534538065925,-175.705191688094,-137.78461705086,-200.469807361563,-269.79316270297,-195.836846675001,-373.474320007017,-362.266567424007,-357.792372172007,-475.648655171271,-372.2409705563,-348.602323009159,-400.846874852303,-497.459903914598,-156.189944381576,-349.309584002176,-356.862991639593,-264.717800013869,-345.689883762615,-256.153563428221,-190.208061247806,-330.443421149105,-241.781680301095,-436.140865641375,-195.004969757121,-385.746957416977,-169.648299581164,-355.766044105543,-138.656703858541,-317.48262305678,-353.826287924895,-273.505386691321,122.109533688854,39.6627840145729,138.469954897589,82.9165598846554,65.2985386672775,170.413878259277,87.306378947255,194.951570912937,166.528707829136,123.904111086471,102.492412208454,175.383020803129,131.829586892292,183.34702142458,174.802431796423,150.914896141493,131.309101680355,177.970037760455,148.019443017204
-3.54303939199798,6.92980048286346,-21.4533933553019,-5.15060608372398,0.200977850898538,-32.5104587790907,-33.9234581405238,-6.37652316170336,-44.7129614976638,-56.3902816596057,-37.1174797224973,-88.8817501859897,-81.8426646833193,-65.0853572532448,-194.037120014479,-186.164526723011,-265.543598773121,-296.788409648962,-239.860308061992,-424.141681605699,-383.628883439026,-444.3922950738,-500.509822979928,-392.081619678178,-428.338219060133,-387.75010117199,-779.906976334805,-141.47118293112,-394.98628079056,-298.752143543232,-374.264970198636,-355.217987191048,-219.448404581452,-209.083824766398,-304.942081475501,-228.394919209792,-385.812274862721,-158.27546133716,-359.318287247437,-103.348700546107,-318.760605156379,-73.7038503003404,-218.431169703093,-227.449524784932,-219.891169917107,102.089864688615,66.7460705549168,119.066669883899,95.8911887439709,75.4906252174497,123.518317286835,80.600422254521,129.187111543041,118.571638938753,95.7019296786557,86.1261627453747,112.664823384367,101.828296949999,113.476117945142,113.002827166304,102.962671726249,92.9094421405638,109.550850749104,93.9549681284279
